3015,3043,2955,3008,2961,2995,2928,3009,2928,2949,3020,2944,2972,3019,2928,3054,2915,3027,2988,3001,2970,3041,3042,2928,3007,2914,2935,2950,3019,3031,3053,2918,3021,2991,2950,3019,2955,3010,2925,3021,2928,2976,2973,3007,2986,2943,3031,3006,2955,2971,3034,2940,2955,3003,3018,2928,2948,2959,2959,2926,3013,2932,2949,2954,3046,2931,2992,3046,2914,2957,3031,2999,2927,2979,3006,2937,3007,2947,3007,2990,3003,2991,2918,3070,2974,2981,3031,2937,2995,3015,3042,2945,2999,2943,3037,3006,2939,3011,2983,0
2922,2994,2928,3035,2953,3067,2930,3027,2982,3026,3005,2921,3015,3027,2945,3015,3003,3024,2901,3011,2989,3009,2987,2978,2913,3024,2916,3005,2992,3001,3039,2964,2975,2983,2986,3042,3023,2928,3067,2986,3017,2950,2974,2945,3015,2984,2911,2957,3027,2995,2971,2928,3031,3015,2929,3023,2918,3004,2908,3067,2909,3059,2965,3063,2926,2962,2913,3014,2912,3009,2929,2988,3017,2965,3026,2928,3025,2974,2993,2941,2966,3014,2980,2923,2991,2902,2921,2989,2987,2953,3018,2960,2992,2938,3007,2954,2989,2992,3013,0
2976,2976,3003,2928,3009,2928,2977,2941,3042,2909,2948,2955,2923,3008,2982,3004,2909,3031,2973,3004,2917,3019,2942,3011,2928,2983,2939,2939,3019,2962,3003,2933,2995,2924,3027,2939,3028,3019,2973,3003,3006,3077,2939,2993,2928,2895,2992,2963,2987,3057,2944,3019,2999,2990,2989,2999,2939,2998,3019,2944,2923,2921,2959,2948,3025,2925,2972,2945,2995,2954,2926,3027,2943,2983,2999,2909,2996,2995,3023,2955,2992,3026,2909,3035,2918,2947,3047,2915,3057,2928,3023,2916,2995,2909,2928,3009,2975,3025,2973,0
2921,3014,2959,2991,2960,3007,2991,2983,2980,2967,2893,3027,2972,2951,2986,2933,2997,2921,3039,2991,3022,2985,2969,3008,2965,3009,2945,3026,2928,2942,2911,2968,2956,3062,2946,2967,3008,2934,2913,3025,2921,3011,2932,2947,2924,2931,3041,3051,3031,2947,3008,2999,2928,2949,2953,3005,3025,2932,3024,3021,2912,3014,2944,3015,2973,2965,3003,3003,2990,2983,2932,3006,2925,2998,2960,3010,2943,3011,2950,2999,2923,3031,2940,2947,3011,2928,3043,2982,2946,2995,2929,3007,2923,3031,2928,3003,2929,3039,2951,0
2960,2959,3039,3059,2905,2943,2960,2960,3022,2960,3062,2925,3031,2975,2928,3063,2933,3039,2959,2992,3043,2960,2994,2960,2968,2992,3031,2960,2925,2975,2944,3056,2963,2935,3071,2942,3023,2956,3005,2913,3035,2953,2921,2983,2977,2937,2928,2900,2986,2928,3013,3026,3027,2926,2940,2910,2963,2994,3024,3006,2965,2970,2962,2943,2981,3021,2932,3023,3026,2924,3024,2928,3005,2986,3033,3027,2907,3008,2992,2998,2929,2998,2991,2917,2992,2950,3025,2949,2971,2950,2978,2957,3003,2958,2948,2983,2967,2977,2997,0
3035,2944,3035,2916,3015,2946,2995,2983,2942,3005,2992,2960,3023,3057,2909,2995,2903,3022,2961,2983,2983,2905,2991,2996,2937,3020,2915,2928,2983,2940,2998,3003,3012,2925,3025,2931,2966,2925,3020,2956,3014,3026,3001,3031,2966,2956,3015,2933,2980,2991,2925,2992,2901,2971,2996,2933,2905,3041,2928,3005,3054,2910,2987,2935,2916,3009,2928,2921,2959,2920,2991,3003,2948,3023,2928,3003,3011,3039,2951,2912,3029,2930,3035,2966,2943,3023,3022,2913,3056,2963,2990,2916,2983,2930,3005,2988,3024,3018,2910,0
2995,2992,3023,2976,2896,3030,2990,3021,2930,2971,2920,2955,2960,2987,3012,2928,2990,2925,3008,2992,3007,2904,2960,3019,3030,2908,2999,3014,3013,2928,2910,2991,2980,2943,2992,2997,2951,2954,2945,2957,2999,2977,2971,3010,2912,3054,2940,3022,2972,3043,2912,3047,2938,3018,2911,3027,3007,3010,2925,2928,3011,3019,2908,3019,3050,2999,3023,3008,2924,3055,2921,2971,3059,2944,3031,2970,2961,3038,3015,2929,3046,2991,2988,2977,2991,2938,3002,2988,2954,2943,3021,2914,2960,3043,2947,3059,2960,3014,2939,0
3023,3024,3008,2991,3004,3024,2978,2928,2943,3024,2979,3005,3039,2896,3006,2983,3008,2906,2943,2932,2986,2943,2921,3024,2899,2976,2998,3039,2945,2921,3006,3008,2961,3014,2961,3027,2966,2916,2998,2992,2981,2960,2964,2915,3027,2986,2960,3051,2942,2992,3019,3021,3031,2928,3034,2925,2963,3015,3045,2963,2950,2977,3038,2967,3029,2929,2974,2985,2893,2991,2992,2921,3041,2929,2989,2930,2926,2932,2928,2967,2917,2959,2994,2926,3019,2957,2967,2973,2977,3019,2947,3011,2911,3015,2960,2975,2978,2939,2980,0
3010,2991,2928,3023,2998,2925,2953,2994,3026,2944,2926,3004,2928,3023,2928,3006,2941,2986,2933,2943,3022,2969,2983,2979,2990,2995,2932,2991,2941,2993,2989,2960,2963,2969,3001,3003,2977,3017,2970,2985,3015,2943,3025,2983,3004,2981,2975,2995,2920,3056,2949,2992,2966,3017,2975,2961,3054,3027,3031,2909,2955,2966,2977,3006,2986,2992,2977,3022,2995,2983,2963,2971,2947,2946,3010,2929,3015,2921,3050,2997,3031,2949,3053,2943,2941,3029,2967,3028,3011,3012,2980,2987,2959,2939,2932,2995,2947,2960,2929,0
3012,2951,2992,2972,3026,2934,3024,2948,2934,3008,3008,2970,2975,2993,2928,3046,3043,2933,2963,3024,2949,3006,2917,3004,2972,3011,2970,2921,2980,2955,3012,3030,2958,2949,2987,2970,2971,2957,3057,2920,3023,2913,3047,2921,2953,2993,3007,2971,2998,2905,2977,2970,2999,3008,2971,3012,2970,2993,3022,2900,2960,2999,3019,2911,2992,2982,2961,2988,3007,3005,2961,3006,2940,2982,2994,2950,2947,2943,2970,2977,3012,2960,2992,2928,3041,2927,3051,2982,2943,2946,2999,3007,2960,2969,3006,3008,2958,2928,3035,0
2946,2979,2925,2951,2960,2995,3021,2944,2945,3027,2924,2994,3033,2994,3055,2932,3009,3079,2928,2956,2912,3025,2932,3007,2986,2980,2931,2977,2941,3004,2960,2991,2925,2897,3041,2920,3011,2930,3001,3040,3003,2955,2992,2931,3003,2914,3008,2972,2999,2911,3026,2957,2990,3024,2937,3023,3019,2921,3023,3031,2929,3024,3011,2899,2960,2940,3009,3004,2922,2928,2930,2992,2979,2949,3007,2965,2960,3060,2945,3010,3021,2939,3031,2986,2928,2999,2942,3014,2946,3013,2957,2959,3043,2928,3023,3004,2918,2995,2912,0
3024,3056,2912,3047,2941,2920,3035,3014,2933,2974,2946,2991,3018,2965,2945,3031,3011,2936,2993,2938,2971,2961,2915,2961,2954,3045,2931,3015,2977,2960,3011,2936,2960,2945,2955,2940,3031,2969,3015,2971,3007,2919,3029,3037,2959,2991,2946,3033,2950,3007,3014,2961,2983,2975,2942,3027,3015,3024,2936,3011,2937,3019,2995,2933,2931,3005,2925,3021,2932,2928,3055,2960,2933,3015,2953,2923,2962,3022,2992,2946,2920,3024,2994,3027,3019,2975,2929,3023,2934,2997,3023,2909,3047,3056,2902,3007,2935,3010,2937,0
3014,2916,2995,3014,2931,2954,3014,3009,2958,2917,2955,2992,2991,2987,2927,3037,2940,3013,2929,2892,2934,2999,2998,2908,3011,2952,2985,3042,2929,3018,3007,2941,2983,2975,3022,2907,3020,2911,3012,2992,3002,2920,3023,2955,3055,2929,3008,3018,2938,3010,2939,2959,2983,2976,2995,3056,3012,3023,2964,2975,2977,2916,3003,2942,2981,3007,3057,2979,2986,3018,2975,3022,3017,2928,3005,2979,3057,2928,3015,2930,3013,2923,2983,2945,3014,2961,2956,2921,2979,3008,2983,2976,2987,3026,2997,3011,3013,2968,2953,0
3009,2949,2928,3031,2939,2944,3011,2974,3008,2953,2992,2936,3015,2962,2943,2998,2973,2924,2931,3079,2937,3015,2924,3007,2992,2989,3024,2970,2983,2984,2933,2937,3027,2963,2975,2940,2997,2928,2915,3023,2917,2999,2979,2963,2932,2987,2960,2972,2932,2925,3059,2929,2983,2956,3003,3008,3026,2975,3003,3002,2986,3019,2992,3007,3039,2940,3069,2914,2949,3040,3031,2929,2963,3002,2949,2995,2960,2981,3058,2920,3027,2928,3019,2916,3003,2985,3008,3027,2955,2893,2933,3031,2994,3025,2991,2987,2978,2999,2974,0
2929,3024,3021,2922,3024,2932,3043,2934,2979,2991,2928,2976,2951,2944,2995,2913,2992,2931,2992,2928,3015,2925,3021,2920,3014,2914,3022,3014,2960,2971,3004,2924,3024,2928,3003,3023,2933,3027,2968,3014,2952,2896,2999,3047,2938,3066,2970,3011,3009,2925,2970,2954,2973,3043,2937,2935,3010,2928,2937,2998,2921,2977,2983,2986,3030,2960,2946,2993,2988,2929,2992,3037,2951,2992,3061,2914,3090,2929,2922,2971,3009,2926,2995,2961,2937,3039,3013,2972,3003,2918,2986,3002,2966,3031,3007,2938,2911,2966,2976,0
2941,2994,2977,3019,2905,3021,2964,3031,2958,3002,2964,2997,3026,3009,3015,2960,3010,2974,2971,2912,3047,3007,2928,2971,3039,2921,3011,3006,2994,2976,3031,2990,2928,2997,2960,2971,2975,3010,2928,3024,3003,2924,2985,3015,2918,3015,2938,2947,2998,2932,3017,2962,2998,2996,2915,3030,2946,3011,2924,2961,2938,2971,2936,2929,2980,2996,2913,3029,2920,3025,2933,3006,2928,3070,2979,2973,2965,2963,3017,3040,2929,2988,2957,2980,3013,3019,3004,2965,3050,3024,2973,2924,3015,2983,2994,2944,2924,2982,2945,0
3042,2991,2992,2933,3009,3052,2939,2896,3017,2990,2960,2953,3023,2977,2928,3024,2911,2987,2961,3011,2910,3019,3031,2942,2930,2987,2960,2928,3041,2951,2973,3031,2934,3056,2960,3015,2988,2979,3054,2970,2960,2924,2944,2999,2927,3031,2933,3015,2991,2961,3003,3012,2945,2928,2992,2930,2943,2942,2944,3039,2916,2961,3023,2924,3015,2945,3008,2928,3062,2938,3025,2932,2960,3031,2992,2937,3037,3023,3043,2990,2928,3024,2960,2996,2942,3031,3008,3031,3039,2944,3029,2948,2953,3022,3018,2995,3024,2893,3010,0
2982,2965,2997,3012,3034,2949,3035,2966,2977,2943,2923,2993,3038,2949,3026,2948,2981,2994,3057,2949,2941,2992,2961,3040,3057,2944,2995,2998,2955,3015,2923,2956,3083,2936,3050,2963,3019,2980,2916,3030,2922,2990,2925,2978,2986,3038,2935,2973,3013,2923,3043,2913,3023,2937,3051,2921,3027,2922,3010,2928,2946,3040,3025,3015,3007,2969,3024,2937,2973,2943,3024,2963,3061,2969,2928,2999,2917,3029,2992,2933,3020,3038,2928,2992,2963,3023,2930,3006,2991,2896,2981,2989,2960,2995,3015,3040,2955,3030,2945,0
2977,3035,2996,2917,2911,2969,2959,3053,2960,3015,2992,3010,2970,2945,2991,2975,3031,2960,3021,2928,2996,2981,3057,2926,2989,2959,3022,3019,2996,2959,2997,2921,3040,2916,2989,2984,3019,2992,3007,2914,2928,3006,3012,2995,2960,2995,2957,3030,3002,2917,3015,3018,2993,2896,2980,3008,2888,3023,2928,2978,2917,2970,2927,2971,2947,3029,2992,2995,3041,2971,2922,3014,2928,3009,2954,3011,2966,2923,3015,2901,3046,2923,2934,3009,3023,3012,2961,3007,2973,3004,3047,2974,3031,3008,2931,3018,2939,2942,2997,0
2946,2999,3002,2941,3011,3038,2965,2966,2955,3010,2973,2999,2924,3019,2970,3002,2995,2927,2992,3015,2921,2990,2983,2921,2991,3006,2951,2930,2976,2983,2967,2987,2994,2929,2964,2918,2998,2928,2975,2981,2896,3015,3002,2997,3026,2925,2976,2922,2949,2988,2928,2957,3046,2928,3014,2965,2964,3047,2927,2979,3005,2920,2930,3030,3011,2940,2945,2980,2989,3039,3027,2977,2954,2974,2944,2930,3011,2966,2928,3025,2920,3035,2994,2951,3025,2909,3025,2960,3051,2937,2991,2978,2983,2964,2926,3011,3034,2931,2992,0
2971,2957,3051,3015,3046,2937,3059,2913,2992,2932,3053,2893,3028,3015,2932,3015,2940,2935,2940,3045,2950,2961,2932,2924,2999,2952,2934,2973,2998,2985,2943,3001,2918,3030,2953,2975,2960,3023,2967,2919,3019,2959,2992,2932,2960,2993,2948,3015,2917,3047,2980,3042,2961,2911,2928,2931,3021,3019,2964,2977,3025,2963,2992,2949,3023,2952,2991,2963,2943,3024,2925,2923,3003,3031,2996,2967,3025,2992,2960,2945,3023,2948,2958,3019,2911,3027,3014,3005,2977,2974,2979,3003,2979,2995,2978,3022,2998,2960,3040,0
2921,3031,2920,3063,2930,3083,2918,3043,3037,3041,2908,3059,2934,2971,2926,3031,2963,3024,2923,3035,2944,2960,2943,3040,2967,2977,3013,2913,3026,2939,2988,3024,2930,3019,2928,2992,3035,2997,2948,3043,2924,3043,2932,2992,2958,3024,2951,3010,2928,3009,2945,2941,3031,2960,2979,2987,2974,2958,2983,2955,2937,3012,2939,3008,2962,2966,3009,2941,2943,2978,2922,2992,2936,2951,2972,2995,2970,2978,3035,2913,3022,3008,3039,2939,3031,3011,2931,2930,2975,2974,2962,2992,2941,3009,3055,2989,2962,2974,2928,0
2999,2914,2928,3047,3063,2921,2971,2950,3019,2918,3021,2927,2965,3013,3027,2962,2917,3030,2975,2945,3031,2929,3067,2975,2994,2995,2933,2959,2990,2963,2965,2944,2928,2914,3006,2904,3047,2988,3008,2910,2947,2999,2971,2929,3024,3007,3029,2909,3043,2962,3003,2985,2963,2963,3030,2930,3045,2915,3019,2937,3037,2929,2970,2960,3018,2932,2929,2964,2953,2994,2944,3058,2943,2925,2995,2993,3055,2960,3022,2912,2961,2920,2971,2981,2991,2989,3021,2920,3041,2947,2936,3039,3024,2966,2953,2998,2961,2980,2992,0
2960,2944,3043,3019,2956,2961,2954,2931,2966,2928,3056,3043,2990,2937,3023,2979,2961,2917,2925,2995,2994,3023,2915,2939,2970,3067,3002,2931,3021,2976,2947,3053,3035,2992,2952,3006,2961,3011,2948,2950,2979,2949,3006,2945,3019,3056,3003,2995,2962,3011,2992,2950,2956,2928,3011,3019,2969,2930,3018,3057,3041,2974,2953,2969,3048,2960,2992,3015,2918,2975,2924,3043,2916,2941,3008,2960,3003,2929,2973,2968,2898,3035,2983,2956,3009,2998,3025,2994,2943,3008,3027,2907,2995,2972,2992,2956,3018,3025,2960,0
3010,2928,3054,2905,2980,2996,2959,2981,3005,2965,2997,2959,2949,3023,2960,2949,2918,2983,2990,2931,2967,3011,3012,2913,3015,2954,2919,3011,2985,2941,2947,2992,3010,2924,2985,2997,3027,2960,2963,2983,2947,3027,2921,2944,2928,2992,2982,2941,2917,2905,3022,2931,2960,2928,2915,3007,2954,2942,3023,2934,2975,2983,3023,2923,3039,2997,2993,3046,2948,2949,2974,3011,2896,2971,2942,3008,2948,2990,2987,2998,3037,2940,2992,3007,2959,3063,2922,2941,3014,2977,2983,2929,2982,2940,3030,2969,2997,2961,2976,0
2966,2960,2945,2962,2924,2937,2978,2926,3051,2910,2963,3025,2925,3024,2908,2956,3011,2934,3039,2954,3019,2932,2949,2995,3014,2896,2972,3018,2967,3002,2911,2979,3014,2987,2990,2928,3046,2994,3019,2999,3006,2969,3024,2920,2932,2981,2992,2955,2984,2990,3012,3062,2986,2982,2960,2946,2990,3025,3040,2961,3009,2928,2991,2993,3030,2953,2973,3046,3007,2991,2960,2997,3018,2942,3025,3051,3019,2968,3034,2936,3042,2949,2928,3038,2970,2956,2983,3007,3003,2951,3013,2940,3023,2962,2957,2992,2981,2995,2923,0
3079,2941,2972,3023,3079,2920,2998,2971,3009,2976,3007,2911,3042,2952,3009,2929,3005,3047,2928,2957,3010,2964,3011,2975,2996,2988,2915,2986,2961,3053,3013,3015,2908,2954,3039,2936,3024,3011,3015,2913,2982,2940,2945,3002,3031,2984,2992,3026,2931,3019,2932,2999,2972,2943,3002,2943,3055,2917,3007,2957,3023,2970,2960,2979,3007,2924,2980,3011,2950,2995,2916,3010,2925,2977,2992,3027,2940,3043,2991,3041,2942,2939,2981,2967,3012,3021,2896,3099,2940,3040,2916,3037,2945,3005,2992,2957,2962,3087,2990,0
3023,3021,2922,2929,3007,3008,3020,2935,2967,3035,3026,2916,3025,2968,2966,2931,3027,2942,2943,3019,2941,3021,2958,3035,2955,2987,2943,2909,2963,2974,2925,2930,2944,3011,2921,3051,2975,2979,3028,3042,2987,3042,2960,3023,2973,3047,3025,2983,2929,3009,2944,2946,3009,2940,2947,2967,3021,2926,2973,3021,2979,2922,3069,2970,2928,2999,2979,2975,3031,2928,3055,2957,3043,2943,3015,3001,3023,3014,2937,2946,3009,2970,2909,3039,2944,3027,2909,3022,2945,2945,2979,2946,2992,2960,2975,2911,3052,2963,2921,0
2915,2990,2943,3010,2959,3011,2927,2898,3039,2992,3027,2933,2989,2946,2928,3039,2927,2968,2997,2983,2964,3015,2975,2949,2946,2934,3031,2916,3024,2912,3029,2929,3040,2948,2956,3027,2930,3014,2924,3039,3014,2949,2993,2949,3054,2972,2993,2925,2982,2991,2959,2987,2958,2906,3008,2927,2921,3006,3025,2965,2990,2960,3010,2986,2970,2939,3038,2923,2988,2928,2972,2995,3055,2969,3025,2919,2969,3023,2924,2975,2922,3025,3004,2936,2950,2944,2917,3009,2923,2959,2954,2975,3046,3024,2916,3025,2908,3027,3018,0
3005,2960,2983,2963,2928,3009,2921,2980,2999,3039,2960,3055,3008,3055,2911,2920,3009,2917,2999,2963,2938,3039,2947,2991,3006,2945,3002,2917,2948,3025,2949,3027,2940,3067,2946,3035,2958,2991,2967,3014,2943,2949,3008,2992,3047,2972,2986,3027,2926,2956,2992,3018,2962,3009,2935,2990,3004,3024,2931,2964,3005,2999,3027,2933,2947,2960,2950,2971,2966,3009,3029,2954,2910,2992,2935,3051,2949,2997,2916,2959,3025,2929,3009,2995,2945,3015,3013,2957,3015,2928,3014,2974,2946,2981,2959,3023,2965,2955,3009,0
3010,2916,3008,3024,2959,3008,2910,2971,2964,2951,2975,2918,3031,2915,2999,2921,2992,2960,2983,2925,3027,3008,3023,2909,2974,3046,2947,2923,2992,3035,2960,3023,3008,2970,2933,2936,2925,3020,2967,2977,2910,3022,2929,3023,2960,2987,2985,2987,2925,3019,2926,3035,3024,2905,2946,2981,3023,2922,2980,3002,2958,3045,2912,3045,2928,2955,2938,2995,2920,2992,2952,2904,3033,2987,2969,2930,3083,3021,2940,3019,2989,3008,2960,2987,3009,2977,2970,3011,2900,2972,3027,2932,2974,2929,3008,2944,2949,2957,3039,0
2960,2955,2916,2995,3007,2956,2944,3024,3023,2930,2982,2946,2995,3025,2933,3013,2957,2946,2923,3028,2960,2909,3026,2951,2983,2944,3014,2985,2967,2997,2928,2969,2965,2977,2940,2976,3023,3024,3012,3021,2909,2988,2946,2966,3013,2944,3053,2921,2991,2953,2922,3001,2991,2970,3011,2972,2933,3011,2936,2907,3005,3009,2939,3043,2965,2911,2992,3031,2944,2960,2977,2992,3023,2925,3039,2921,2943,2914,3004,2955,2950,3039,2964,3009,2917,3047,2918,3019,2952,2943,3003,2991,2928,2930,2980,3021,3008,2916,3020,0
3034,2908,3015,2948,2928,3006,2917,3019,2947,3007,2928,2962,2905,2995,2972,2939,2920,2929,2960,3004,3005,2992,2985,2945,3023,2945,2928,2967,2968,3015,2960,3007,2926,3027,2928,3051,2917,3031,2909,2995,3014,3024,2992,3035,2915,3019,3042,3019,2902,3003,2916,3015,2953,3024,2972,2947,3003,3004,3019,2988,3008,3011,2969,3031,2943,3022,2921,3019,3042,2901,2925,2992,2959,2943,3019,2967,3021,2928,2936,3011,3022,2942,3009,2928,3035,2946,2993,2998,2960,3055,2920,3031,2917,2995,2954,2983,2992,3031,3022,0
2945,2979,2957,2958,2983,2954,2992,2992,3008,3011,3024,3008,3035,2928,3079,2957,2964,3023,2928,2917,3039,2945,2975,3025,2915,3012,2987,3031,2955,3019,2911,3044,2902,2993,3022,3019,3055,2963,3009,2941,2912,3027,2911,3042,2997,3031,2960,3038,2945,2948,2924,3009,2989,2981,2928,2913,2976,2993,2994,2928,3011,2932,2997,2939,2923,3027,2961,3043,2966,2940,3042,2964,2939,2944,2987,2922,3009,2914,2971,2911,2995,2967,3015,2986,2922,2943,2995,2952,2992,2979,2945,3023,2987,2992,3019,2963,2988,2944,2960,0
2924,2960,2950,3008,2960,3026,3029,3026,2941,3019,2941,3061,2998,2960,2922,2940,2914,2995,2996,2979,2964,2991,2939,3038,2914,3079,2928,2953,3026,2956,2970,2951,2967,3094,2926,3051,3006,2927,2983,2942,3029,3027,3015,2953,2993,2918,2991,2975,3013,3023,2923,2960,3018,2998,3010,2956,2960,2943,2941,3010,2911,3058,2923,3003,2911,3001,3051,2923,2994,2916,2919,2991,3043,2945,3007,2947,2928,2955,2992,3038,2942,3079,3028,2941,3025,2940,3002,2959,2958,2931,2942,3015,2937,3003,2920,3030,2960,3021,2945,0
2992,2928,2960,2928,3011,2960,2999,2945,2932,3004,2900,3045,2954,2960,3086,2923,2924,2964,3041,2942,2955,3022,2916,3046,2918,2947,2929,2983,2909,3008,2941,2916,3023,2981,2921,3041,2928,3023,2916,3025,2917,3035,2925,3022,2960,2994,2977,2995,2983,3026,3027,2993,3021,2969,3030,2925,3067,2944,2991,2950,3003,2984,2937,3019,2926,2983,3030,3031,2955,2912,3055,2918,3005,3027,3005,2928,3027,3026,2943,3055,2944,2993,3056,2928,3062,2961,2991,2970,2992,2929,2960,3035,2956,3047,2925,3008,3027,2927,2992,0
3056,2933,3013,2928,2981,2908,3031,2990,3056,2896,3027,3026,2972,2911,2974,2933,3055,2933,3034,2981,3002,2961,3055,2957,3031,2973,2983,3047,2960,3011,2980,2999,2915,2972,2999,2944,3054,2949,2961,3003,3005,2933,2971,2975,2964,3024,3011,2992,3009,2932,2953,2956,2992,3051,3023,2928,2978,2896,2936,2982,3006,2981,2939,3023,2991,3045,2929,2992,3031,3018,2960,3010,3008,3034,2933,3035,2928,3009,3041,2924,3063,2928,3003,3043,2991,2989,2992,2969,2986,2942,2992,3057,2932,3011,2896,2979,2992,2923,2928,0
3041,2922,3019,3018,2955,2999,2967,2956,2977,2967,2943,2935,3010,2929,3008,2921,3031,2937,3011,2999,3004,2958,3009,3052,2995,2967,2981,2975,3025,2974,3057,3052,2984,2982,2932,2983,2952,2928,3035,2926,2906,2998,2965,3015,2924,3031,2908,3038,2951,3026,2948,2970,3015,2949,3003,2954,2980,2976,3005,2974,2985,2962,2957,3008,2889,3022,2955,3027,2913,2922,3026,2955,3035,2942,3009,2945,3019,2984,2966,3033,2960,3010,2974,2992,3021,3024,2938,2999,3021,3014,2987,3055,2993,3037,2938,2925,3024,2947,2938,0
2954,2960,3008,2925,3040,2976,3019,2911,2987,2941,2914,3004,3019,2990,3013,2984,3014,2963,3046,2975,2937,3031,2939,3002,2914,2982,3011,2955,2912,3025,2909,2980,3019,3081,2930,3024,2961,3005,3051,2914,2960,2990,2955,3042,2929,3007,2944,2992,2963,2976,2974,3040,2911,3028,2929,3018,2928,2947,3008,2926,3055,2982,2965,2960,2992,2905,3015,2936,3015,2979,2996,2911,3029,2940,3031,2943,3008,2943,2997,2960,2949,3019,2920,3039,2909,2972,2995,2917,2970,2938,2922,3031,2912,2972,2945,2969,3015,2919,3035,0
2993,2916,2971,3026,3047,2981,3015,3030,2977,2995,2957,2972,3030,2990,3019,2918,3010,3007,2971,2977,3040,2992,2974,2911,3011,2934,2950,2974,2928,3050,2905,3055,2918,2949,3031,2923,2939,3039,3014,2920,3034,2956,2982,2929,3023,2937,2976,3045,3099,2943,2948,3027,3000,3027,2929,2959,2998,2981,2991,2911,2928,2960,3039,2948,3006,3039,2949,2972,2965,2992,2947,2998,2987,2959,2928,2918,2995,2956,2935,2964,2995,2995,3026,2975,2999,2980,3035,3018,2918,3045,2926,3003,2952,3031,2945,2999,2981,2935,3031,0
2956,3061,2956,3013,2941,2940,3022,2992,2939,3009,2980,2992,2960,2967,2971,2947,2916,3025,2999,2921,3027,2952,3013,2940,3004,2953,3031,2938,2929,2947,3045,2940,3015,2958,3021,2916,3008,3055,2992,2958,2999,2968,2963,3019,2987,3031,2923,2982,3002,3002,2951,3041,2939,2999,2944,2995,2956,3051,2931,3031,2928,2994,2920,3038,2947,2965,2929,2960,3024,2936,3024,2976,3011,3004,3020,2964,2972,3038,2960,2960,3106,2950,3043,2917,2955,2962,2987,3051,2972,3025,3008,2942,3019,2962,3011,2954,2976,2921,2979,0
2998,2955,2990,2983,2935,2983,2987,2948,2896,3054,2975,2991,2993,2924,2983,3004,2971,2896,2983,3056,2919,3047,2925,2954,2971,3035,2959,2986,3038,2917,2999,2912,2998,2983,3008,2939,3013,2940,3047,2966,3055,2913,3071,2971,2966,2940,2955,2944,2986,2966,2966,2973,2986,2892,2991,2967,3047,2929,2999,2949,2906,3040,2960,3035,2917,3038,2924,2989,2935,3008,2929,2983,2928,3003,2936,2998,2889,2929,3023,2987,2981,3035,2985,3006,2869,2949,2921,3056,2975,2965,2982,2959,2977,2978,2973,3005,3025,2906,2963,0
3037,2952,3007,2920,3024,2982,2997,2957,3011,2956,3055,2932,2961,2969,2985,3027,2997,3023,2983,3031,2929,3043,2911,2965,2932,3015,2920,3025,2916,3038,2941,2956,2960,3015,3056,2918,2973,2982,3055,3022,2939,2962,3040,2922,3009,2960,3009,2987,2939,2920,3026,2928,3030,2935,3051,2989,2962,3004,3011,2972,3024,2916,3015,2919,2992,3003,3024,2961,3027,3043,2945,3035,2913,3008,2935,2983,2960,3008,3015,2953,2979,2983,3029,2977,3003,2940,3030,2943,3026,2937,2989,2928,2995,2943,2995,2998,3026,2929,2913,0
2998,3011,2983,2979,3004,3025,2992,2974,3038,2995,2931,3010,2929,3024,2975,2961,3011,2992,2996,2934,2912,2998,2959,2935,2947,3055,2961,3019,2948,2990,3013,3005,2960,3002,3009,2965,3006,2995,2914,3063,2999,3011,2927,3023,2967,2991,3026,2971,2955,2960,2959,2993,2977,2979,3012,2994,2958,3007,2908,3018,2952,2989,2928,3069,2928,2942,2940,3027,2943,3019,2960,2963,3024,2942,3017,2993,2931,2961,2928,3005,2911,3078,2953,3043,3031,3027,2959,2963,2930,2983,2931,3024,2954,3010,3017,3010,2928,2956,2933,0
2960,3019,2926,2995,2959,2955,2986,3059,2909,2938,3021,2934,3024,2910,2973,3039,2998,2926,2955,2994,2979,3023,3019,2960,3019,2974,2947,3009,2972,2938,3015,2972,2983,2978,2977,2978,2896,3034,3006,2992,2977,2963,2967,3031,2933,2957,3001,2934,2943,3008,2974,3043,3004,2934,3031,2958,2967,3008,2937,3008,2962,2937,3010,2925,3088,2972,2987,2957,3005,2901,2951,2930,3039,2926,2979,2912,2908,2962,2987,3034,2975,2970,3039,2986,2992,2940,3002,2991,2968,2971,3049,2991,2992,2922,2920,3031,3031,2912,2940,0
3030,2920,2921,2981,2917,2908,2998,2908,3050,2928,2973,2999,2970,3055,2924,3021,2920,3051,2916,3054,2925,2993,3008,2926,3027,2941,3013,2934,3018,3017,3024,3002,2928,3017,2940,2999,2975,2960,2999,2960,2999,3056,2931,3039,2985,2940,3014,2979,3021,2937,3019,2924,3009,2912,2938,2926,2987,2967,3008,3035,3030,2896,3069,2915,3019,2945,2969,3015,2917,3029,2909,3056,2923,3031,2916,2959,2993,2930,3027,2921,3040,2975,2929,2987,3003,3008,2979,3014,2938,2987,3039,2943,2983,2945,2967,3041,2913,2955,2999,0
2967,3041,2994,3026,2962,3027,2955,2961,3030,2935,2928,2945,3015,3009,2943,2973,3015,3043,2978,3055,2920,3006,2981,2981,2958,2926,2946,3007,2967,2915,2910,3037,2967,3015,2917,2996,2931,2964,2967,2975,2897,3008,2953,2928,3023,2903,2943,3062,2951,3000,2929,3033,2956,3067,2917,3050,3039,2924,3023,2901,3046,2960,2956,2901,2990,2961,3022,2929,3028,2995,3023,3010,2929,3025,2932,2976,2982,2943,3003,2932,3003,2944,2987,3031,3004,2963,2960,2960,2936,2945,2991,2981,3035,2977,3007,2967,2969,3024,2911,0
2995,2995,2995,2985,2921,2945,3029,2999,3028,2936,3030,2928,3029,2935,2983,2913,2949,2911,2928,3003,2960,2912,3067,2924,2979,3031,3036,2986,3021,2941,2967,2905,2954,3050,2912,2992,3062,2952,2967,2961,2947,2957,3042,2981,2922,2956,3004,2937,2979,3053,2924,3030,2917,2999,2961,3009,2982,2961,2999,2943,3043,2937,2924,3040,2897,2936,2960,2986,2948,2944,2924,2971,2990,2928,2991,3043,2956,2992,2960,3022,2927,2901,2939,2963,3015,2965,2967,2977,3041,2960,2975,2993,2960,2930,2960,3032,2982,2901,2991,0
2979,2921,2995,2942,3026,2928,2965,3039,2977,3052,2930,3011,2941,3031,2938,3006,3011,2949,2951,2954,2999,3013,2986,2937,3019,2910,3027,2945,3022,2988,2945,2948,2945,2999,3043,2983,2937,2994,3009,2922,3037,2947,2942,2967,2992,2971,2993,3037,2958,2952,3024,2933,3003,2920,2920,3003,2929,3047,2963,3015,2953,2975,2960,3027,3038,2972,2932,3011,2928,2979,2967,2997,2972,3022,2928,2999,2957,2933,2963,3025,2943,3028,3015,2917,3023,2918,3024,3012,3023,2945,2948,2945,2938,2993,2928,3024,2956,3043,2970,0
2987,3027,2934,2930,2992,2932,2932,2975,2987,2924,3007,2947,2925,2994,2970,2936,2960,3038,2950,2997,2926,3018,3024,2935,3021,2922,3041,2948,3059,3014,2956,2992,3023,2922,3031,2905,2912,3010,2945,3041,3005,2952,2960,2970,2948,2928,2917,3034,2949,2951,2985,2959,3003,2933,3056,3025,2914,2917,2923,2964,3040,2928,2997,2919,2999,2959,2942,3047,2930,2904,2990,2965,3023,3006,2953,2987,2987,3019,2996,2944,2999,2968,3015,2924,2960,2923,3031,2913,2924,3051,2921,2962,2924,3026,2944,3039,2943,3006,2969,0
2941,2989,2948,3003,2947,2959,2991,2970,3008,3019,3000,3091,2975,2977,3008,2928,2951,3009,2960,2913,2998,2956,3047,2928,3004,3019,2920,2972,2933,3008,2924,2955,2960,3042,2967,2986,2959,3059,3009,2932,2973,2960,2917,3043,3058,2933,2981,2999,2966,2991,2998,2910,2955,3022,2971,3038,2916,3015,3019,2975,3007,3062,2991,2931,2945,2979,2969,2960,2992,2960,2965,3023,2943,2925,2994,3014,2994,2984,3001,2928,2971,2993,3004,2997,2969,3008,2928,3022,3011,3008,2980,2960,2964,2960,2928,2932,3025,2958,2995,0
2939,3024,2917,3027,2924,3040,2995,2989,2918,3006,2952,2991,2956,3014,2979,2929,2953,3035,3038,3043,2928,2967,2970,2977,3023,2960,2940,2945,3009,2966,2993,2952,2964,3007,3008,2976,2975,2992,2972,3015,2967,3030,2948,2998,3022,2948,2921,2994,2955,3088,2928,3037,2960,2961,3008,2910,3014,2928,2960,2953,2992,2961,2956,2977,2991,2953,2935,3008,2978,2945,2976,2975,2961,3007,2921,3003,2939,3050,2929,3012,2971,2944,2995,3012,2998,2964,2975,2916,3006,2955,3008,3031,2995,2942,3024,2988,3056,2937,3035,0
2987,2973,3025,2998,2920,3031,2999,2963,2965,2928,2971,2960,2927,2959,2960,2919,2942,3019,2999,3019,2988,3027,3014,3011,2928,3024,2927,2974,2921,3015,2914,2928,2927,2970,3046,2989,2949,3067,2938,2990,2997,2950,3006,3011,2960,3030,2964,3051,3056,2977,2943,3035,2933,2938,2990,2971,2943,3013,2999,2940,2993,2992,2978,2927,2948,2992,2959,2912,2978,2961,2978,2993,2920,2925,3024,2921,2950,3025,2905,3039,2916,3039,2928,2939,2992,2923,2948,2942,2994,3014,2944,3025,2928,3021,2938,3025,2934,2978,2942,0
3018,2920,3003,2982,2974,3017,2923,2955,2944,2905,2900,2963,2993,2960,2961,2948,2941,2928,3043,2928,2999,2982,3019,2901,2998,2999,2992,2939,2927,2946,3001,2992,3010,2946,3023,2999,2928,2979,2938,3011,2958,3035,2955,2999,2963,2960,2956,2975,2974,2987,2994,2943,2996,2969,2944,2928,3016,2949,2992,3015,2951,3011,2931,2982,2928,2936,3010,2910,3023,2992,3024,3031,2950,2936,3018,2957,3031,2910,2994,3041,2928,2919,2919,3043,3031,2997,2940,3031,2979,3038,3040,2883,2958,2949,2972,2968,2948,2995,2932,0
2960,2960,2979,2942,2987,2939,2992,2934,2974,3015,3043,2902,2972,3014,2974,2977,2923,2988,3011,3010,3024,2928,2970,2892,3026,2924,3011,2941,3023,3006,2939,2982,2943,2983,2959,2921,2951,2997,3011,2972,2928,3014,2908,2987,2916,3031,2902,3024,2944,2998,2955,2912,3029,2988,2980,2989,3023,3025,2950,3021,2962,2953,2973,2914,2951,2977,2909,3015,2907,3003,2915,3039,3025,2929,2932,3007,3019,2941,2919,2992,2995,2966,3027,2933,2941,2950,2925,2972,2957,3006,2949,3006,2925,2912,2991,2982,2920,2947,3019,0
2935,2963,2964,2946,3029,2941,2974,2923,2963,3035,2960,2918,3024,2937,3025,2999,2948,2994,2992,2922,2987,2988,2931,2938,2969,2995,3022,3027,2976,2976,2929,3013,2971,2960,2993,2928,2995,2983,3051,3031,3043,2983,2924,3018,3020,2928,2983,3005,3019,2983,3023,2916,2937,2996,3040,3040,2987,3021,2913,3007,2913,3007,3031,2936,2993,2994,2914,3013,2909,2979,2945,3034,2924,2922,2967,2908,3035,2921,2992,2954,3035,3024,3050,2930,3056,2918,2960,2947,2985,2969,2943,3024,3056,2955,2960,2910,2908,3027,2942,0
3040,2921,3024,2987,2982,2928,2995,3023,2927,2945,3044,2972,3039,2944,2989,2962,3013,2928,2927,2962,3031,2932,3009,2947,2991,2944,2963,2928,2945,2994,2989,2900,2960,3015,3056,2996,2976,3007,2928,2948,2959,2947,3013,2918,2988,2963,2933,2960,3067,2920,3031,2939,2976,2929,3025,2988,2955,3019,2992,3015,2992,2949,3005,2950,2972,2978,3031,3012,3051,2905,2974,3031,2933,2931,2960,3002,2910,3015,2972,2916,3009,2929,2951,2980,2946,2913,2998,2917,3024,3014,2936,2991,2986,3003,2933,2992,3005,2917,2954,0
3018,2960,2911,3011,2916,3042,2961,3051,3014,2960,2948,3015,3022,3023,3006,3024,3046,2982,3056,3013,2969,3011,2896,3014,2950,2995,2954,2977,2954,2973,2999,2970,3024,2984,3011,2965,3007,2991,2986,2985,2993,2912,3029,3025,2950,3007,2991,2912,2910,3009,2945,2995,2953,2977,3015,2909,3043,2940,3042,2927,3019,2928,2933,3027,2946,3018,2969,2944,2958,2981,3008,3022,2960,3003,2972,3011,2960,3039,2934,3018,2921,2987,2992,2928,2995,3010,2900,3027,2942,3027,2906,3007,2908,2928,2982,2987,2989,3014,3018,0
2938,2951,2992,2995,2986,2963,2993,2983,2928,3023,2970,2962,3024,2949,3005,2979,2945,2985,3009,3023,2916,3023,3027,2960,2977,2938,2963,2974,2972,2986,3019,3019,3015,2916,2925,3024,2940,2952,3059,2939,3027,2932,2936,2957,3015,2939,2930,3051,2938,2942,3005,2961,3002,2927,2992,3028,2986,3030,2992,2963,2928,3027,2982,3002,3035,3008,2953,3037,2971,3009,2916,2926,3002,2946,3011,2979,3043,2926,2967,2935,3003,2942,3014,3042,3011,2983,2992,2957,2929,3039,2939,3023,2982,3006,2944,3027,2957,3003,2982,0
2941,2971,2944,2960,3008,2976,2916,3063,2982,2983,2921,3067,2971,2928,2992,3025,3021,2937,3003,2954,3027,2896,2952,2923,2991,3020,2957,3009,2928,3025,2992,3024,2889,3023,3039,2955,3006,2977,2983,2998,2930,2976,2933,2960,2999,2975,2960,3045,3007,2928,3058,2968,3030,2954,2943,2961,3003,2952,2919,3023,3006,2932,3007,2992,3001,2930,2941,2987,2915,3015,2938,3024,2986,2937,3010,3012,2979,2957,2931,3015,2953,2946,2987,2921,3027,2976,3046,3020,2902,3025,2982,2946,2935,3042,2971,2991,2965,3038,2888,0
2988,2944,2995,2971,2981,2949,3023,2916,2995,2962,3024,3030,3014,2965,3024,2944,2992,2995,2972,2923,2990,2983,2948,3041,2934,2983,3013,2975,2961,3004,3023,2997,2986,2995,3005,2957,3003,2984,3023,2967,2978,2926,3019,2938,2960,3008,3015,2922,3024,2920,2989,2961,3008,2971,2940,3027,2968,2993,2954,2940,3007,3059,2980,2915,2997,2944,3026,2983,2922,2958,2959,2947,3029,3017,2954,2993,2973,2950,2981,2957,3059,2914,2944,3036,2928,2979,2928,3007,3005,2940,2988,2982,2928,2995,2896,3029,2931,2914,3027,0
2942,3031,2969,3004,2906,3003,2946,3019,2900,3019,2946,3023,3005,2944,3035,2960,3031,2960,2945,2994,3078,2928,2978,3022,3024,2938,2991,2953,2921,2959,3031,2926,2936,2978,2946,2976,3047,2941,3031,3019,2892,2988,2979,2971,2983,2928,3029,3023,2910,2915,2942,3025,2914,3031,2962,3011,2945,3035,2983,3031,2928,2971,3011,2924,3008,2942,2990,2960,2973,2946,2916,3015,2928,2960,2931,2980,2990,2992,2983,2964,2973,3015,2921,2999,2980,2933,2983,2920,3050,2973,2919,2947,3036,2931,3040,2994,2949,3055,2922,0
2939,2983,3015,2951,2908,2967,3011,2919,2996,3028,2974,2960,3023,2991,3023,2950,2967,3023,2917,2938,3012,3051,3008,2970,3035,3002,2938,2985,3001,2968,2989,2953,3019,2975,2988,3067,2992,2942,2958,3050,2911,3015,2941,2926,3030,3019,2975,2961,2940,2987,2953,2911,3032,2981,2979,2929,2975,2960,2931,3059,2917,3027,2944,3053,2928,2968,3026,3041,2916,3019,2957,3007,2929,2928,2992,3005,2932,3007,2932,2986,2981,3035,2975,2923,2911,3019,3055,2911,2994,2993,2960,2926,3005,2928,2995,3023,2928,2948,2995,0
2990,2960,2925,3010,3008,2954,2973,3007,2918,3051,3035,2923,3023,3023,2928,2991,2946,3013,3020,2948,3023,2925,3031,3023,2957,2928,3040,2980,2928,3008,2924,2961,2974,2949,2987,2923,3007,2939,3019,3055,2904,3071,2934,2960,3024,2990,3024,2991,2925,2994,2939,2947,2959,2963,2942,3019,2954,2992,3020,2955,2934,3056,3018,2917,3003,2959,2961,2956,2916,3027,2954,3037,2928,2917,3031,2962,2999,2910,3005,2930,3045,3019,3041,2937,2995,3001,3047,3011,2945,2988,3006,2972,3023,2914,2992,2977,2954,3042,2949,0
2999,2966,2979,3019,2905,2907,3031,3003,3006,2926,3007,2925,2931,3035,2928,3009,2928,2994,2991,3019,3008,3006,2928,2991,2930,3088,2927,3056,2922,2999,2965,3003,2910,3006,2947,3056,2907,2998,3019,2948,2960,2906,3002,2940,3027,2915,3029,2956,2929,2971,2967,2986,3008,2974,2917,2967,2956,2959,2998,2961,2986,2943,3010,2963,2928,3035,2934,2983,2909,2951,2993,2967,2957,2970,2960,2897,2997,2925,2990,2910,2997,3003,2991,2942,2932,2992,2952,2991,3024,2969,2928,3027,2987,3005,2960,3031,3025,3019,2942,0
2992,2928,2990,2914,3025,2909,2991,2976,2996,2997,3029,2999,2908,2934,2960,2951,3007,3003,2896,3029,2990,3021,2999,3014,3018,2930,3011,2924,3019,2933,3015,3008,2966,2972,2967,2944,3019,2963,3008,2930,2960,2949,2967,2960,3024,2926,3031,2963,2991,2943,3047,3036,2955,3027,2956,2993,3038,2916,2949,2998,2943,2977,2938,2978,2924,2999,2996,2928,3004,2916,2971,2965,2995,3009,2947,3063,2943,2983,2960,2990,2925,3014,2981,2966,2959,2939,3019,2932,2986,2939,2933,2910,3019,2940,3031,2937,3015,2940,3007,0
2970,3002,2998,2990,2928,3019,3037,2959,2944,3011,2960,2957,2948,2943,2992,3007,2949,3023,2929,3054,2945,3029,2986,2994,2914,2942,2931,3039,2928,2923,2943,3026,2923,3054,2945,2992,3036,2931,2991,2913,3015,2923,2981,2964,2942,2937,3029,2950,3002,2960,2994,2964,2983,2929,3023,3024,3019,2939,2926,2983,2954,2975,3023,3015,3009,2916,2979,3006,2967,3006,2916,2960,2983,3023,2959,3011,2942,3012,2929,2995,3012,3024,2926,2897,2957,2912,3027,3050,3019,2920,3038,2916,2978,2980,3007,2942,2979,3002,2960,0
2994,2995,2928,2993,2991,2981,2993,2947,2993,2959,3000,3005,3046,2913,2937,2966,2977,2994,2935,2978,3037,2982,2948,3025,3023,2928,3043,2962,2943,2950,3030,2967,3015,2922,3029,3003,2998,2963,3031,2946,2983,2960,2965,3023,2956,3008,2933,3041,2982,2922,2928,2967,3005,2915,2999,3015,2928,3008,2966,2956,2998,2917,3033,2942,3013,2916,2972,2952,3038,2928,3031,2938,3024,3024,3003,2948,2951,3019,2944,2991,2922,3019,2921,3042,2958,2928,3011,2991,3002,2928,2977,2964,2992,2987,3006,2977,3029,3011,2980,0
3009,3023,2868,3023,3011,3025,2945,2992,2921,2996,3031,2928,3021,2988,2965,2964,2993,2963,2971,2954,3021,2952,3003,3019,2951,3011,2900,2991,2969,2990,3034,2947,3038,2954,2983,3003,2907,3038,2918,2977,2928,3055,2997,3049,2957,2981,2934,2933,3014,2983,3030,2914,2969,2974,2990,2981,3034,2935,3025,2913,3055,2908,3015,2932,3009,2948,3014,3009,2928,3006,2956,3035,2960,2967,3007,3007,3023,3009,2999,2905,3012,3023,2940,2966,2991,2993,2958,2936,2960,2980,2941,2974,2933,2981,2944,2972,2928,2998,2940,0
3006,2942,2990,3019,2961,2977,3002,2928,3011,3039,2938,3026,2977,2916,3006,3031,2962,3025,2975,2990,2949,2998,2950,2976,2943,3019,2920,3039,2960,3035,2971,2958,2987,2993,3019,2973,2969,2933,2995,2960,2952,3019,2917,2991,2958,3026,2986,2959,3001,2916,3007,2898,3007,3007,2905,2934,2947,2940,3022,2937,2976,2910,2928,2981,2911,2929,2934,2961,3047,2960,3031,2940,3019,2944,2922,2959,2918,2993,2989,2919,2960,2946,3056,2989,2987,2949,3031,3009,2946,2914,2994,2989,2909,3010,2924,3003,2967,2939,2944,0
3023,3001,2963,3024,3058,3008,2950,2939,3030,2917,2932,2930,2951,2922,3027,2998,3051,2896,3022,3015,2956,2918,3045,2937,3035,2983,2939,2918,2931,3015,2933,3019,2920,2960,3025,2963,2965,3019,2952,2995,2969,2964,2929,2990,2930,3015,2962,3026,3027,2932,3041,2992,2989,3007,2956,2943,3019,3007,2929,3038,2929,2956,2933,3022,2939,3019,2915,2974,2912,2927,3051,2975,2979,2956,3015,3018,2963,2923,3023,2940,2928,2990,2912,3027,2944,2928,3008,2924,3009,2918,2992,2940,2973,2975,2980,2971,2960,3024,3047,0
2960,2906,3042,2979,3024,2986,3015,2994,2944,2960,3018,2947,2974,3051,2910,3063,2936,3014,2947,2999,2992,2966,2958,2963,2972,3015,2938,3031,3021,2944,2957,2987,3009,3009,2983,2943,2911,3020,2913,3035,2921,2968,2925,2929,3005,3010,2966,3025,3008,3015,2935,3042,2907,2967,2932,3038,2933,2928,3027,2921,2944,3011,2935,2963,2991,3027,2935,2989,2928,3038,2929,2976,2945,2923,3055,2946,3023,2960,2999,2995,2928,3003,2928,2975,2931,2906,2935,2961,3035,2928,3013,2936,2936,2987,2968,2940,3009,2949,2979,0
2944,2927,3008,2987,3014,2974,3027,2971,2938,2994,2972,2993,2998,2998,2945,3002,3014,3033,2911,2986,3011,2928,3031,2919,2937,3031,2976,2992,2958,3045,2965,2928,2940,3026,2961,3015,2926,2910,3019,3018,2959,3029,2987,3039,2931,2916,3040,2937,3023,2913,3013,3007,2975,2910,3024,3003,2920,3007,2924,2924,2951,2981,3041,2915,2909,2977,2975,2987,2992,2932,3034,2913,2987,2999,2925,2991,2981,2928,2999,2996,2958,2928,3000,3009,3035,2931,3014,2948,2967,3013,2950,3014,2927,2942,3015,2940,3002,3023,2911,0
2983,2943,2962,2928,2927,3034,3008,2926,3024,3014,2925,2912,3035,2950,3035,2952,2960,2944,3012,3027,2928,2973,2992,2936,2977,2935,2985,2940,3019,2952,2983,2998,3031,2961,2958,2999,2944,3023,2933,3027,2920,3001,3055,2912,2960,2958,3056,2960,2945,3056,2972,3087,3037,2939,2999,2924,3043,2959,3020,2921,2941,3023,3002,2928,2942,2928,2967,2983,2963,2928,2965,2900,2982,2971,2924,2945,2910,2960,2965,3023,2909,3047,2992,2992,2948,3009,2988,2928,2969,2934,2946,2975,3005,2994,2916,3008,3043,2951,2904,0
3055,2973,2928,2977,2993,2931,2975,3031,2910,3030,2970,3005,2954,2927,2994,3009,3007,2943,2931,3009,2992,2910,3014,2912,2925,2965,3063,3024,2960,3053,2981,3091,2979,2962,2877,3031,3015,3026,2948,2945,2972,2997,2913,3008,2901,3083,2940,3003,2924,2992,2938,2957,2987,2947,2932,2965,2981,2952,3031,2942,3033,2939,2995,3007,2937,2986,2967,2961,3043,2939,3005,2992,2970,2913,3039,2913,2992,2969,3018,2913,2990,2995,2975,2916,2906,2959,2993,3007,2945,3011,2944,2951,3023,2922,2928,2938,2909,2958,2983,0
3046,2951,3005,2992,2954,2982,3055,2940,2972,2971,2959,2977,2961,3038,2925,3015,2936,3050,2992,3004,2942,2889,3024,2955,3034,2915,3005,3046,2943,2928,3035,3051,2912,2987,2947,2972,2928,3024,3002,2984,2953,2988,3007,2954,2999,2972,3015,3010,2954,3035,2953,3006,2918,3020,3010,3002,2953,2937,2983,2927,2999,2941,2994,2995,2998,2967,2936,2972,3019,2925,2983,2925,2997,2979,2999,3035,2973,2945,3041,2960,2979,3006,2963,2977,3003,2961,3009,2912,3054,2928,2957,2956,2944,2988,2977,2965,3027,2892,3013,0
2902,2990,3055,2921,3006,2992,3015,2924,2976,3042,3014,2977,2998,2962,2928,3005,2923,3047,2932,3017,3019,2940,2990,2995,2930,2920,3008,2931,2919,2998,2967,3020,2936,3003,3035,3058,3003,2928,3024,2940,3042,2973,3006,2938,3015,2972,3035,2962,3051,3059,2909,2999,2920,3023,2933,2977,2960,2912,3054,3091,3054,2942,2951,2944,2992,2924,3010,2922,2972,2914,2927,3011,3019,2992,2989,2972,2987,2933,3011,2965,2924,2992,2926,3022,2933,3029,3015,2946,2944,2929,2936,2977,2977,2966,2928,2967,2982,2975,3024,0
3023,3011,2929,2995,2917,2994,3001,2973,3024,3023,2960,3059,3031,2925,2967,2983,2916,3021,2915,3052,2974,2999,3035,2912,2993,2899,3036,2997,2981,2948,2973,3035,2921,3015,2941,2928,3011,3000,3011,2992,3027,2958,3030,2911,2940,2960,2941,2948,2963,3024,2931,3008,2986,3007,2918,2985,3023,2992,2999,3025,2880,3055,3090,2971,3002,2921,3037,3027,3019,2972,3034,3019,2960,3004,2973,3036,2941,3007,3007,3015,3014,2950,3038,2929,2974,3015,2936,3039,2960,3041,2960,3027,3006,2921,3055,2947,2987,2923,3046,0
3009,2940,3023,3015,2914,2991,2961,2973,3022,2992,3001,2950,2973,2928,2987,2991,2924,2923,3024,2923,3051,3022,2978,2930,3027,2928,3011,3019,2933,3014,2937,3059,2929,2992,2949,2963,2933,3025,3031,2933,3031,2933,2993,2952,2926,3024,3015,2948,2980,2983,3037,2935,2960,3009,2945,2996,2971,2928,2994,2992,2993,2967,2915,2920,3023,2920,3033,2961,3057,2922,2931,2933,3009,2993,3042,3025,3049,2910,2988,2960,2945,2928,3019,2984,3011,2993,2950,3029,2980,2916,2960,2943,2950,3047,3003,2971,3035,2906,3047,0
2905,2995,2946,2996,3008,2958,3014,2962,3007,2990,3011,2909,3022,2979,2985,3009,2983,2932,2960,2999,3002,2977,2918,3026,3024,2926,3050,2981,3019,2943,2976,3028,3022,2928,3039,2941,3019,2925,3047,2914,3051,2969,3004,2986,3008,2979,2958,3006,2967,2950,2949,3035,2913,2938,3027,2961,2961,3011,2985,2998,3047,2936,2979,2960,2960,2999,2959,3005,3035,2937,3008,2952,3031,2920,3028,2990,2966,2935,2922,3013,2957,2945,2922,2944,2928,2991,2960,2991,3019,2916,3007,2943,3026,2909,3015,2915,2950,2928,3046,0
2937,3031,3027,2908,2928,3004,2932,3010,2962,2956,2933,3020,3019,2934,3015,3026,3029,2931,2966,2956,2937,3043,3015,2992,3015,2941,3008,2921,3023,2941,3024,2997,2990,2977,2960,3019,3031,2959,2993,3011,3034,2917,3008,2910,2979,3013,2928,2943,2910,2995,3007,2932,3027,3021,3051,2911,2942,2999,2971,2995,3035,2930,2963,2953,3015,2935,2937,2992,2992,3018,3026,2956,2979,3031,2913,2896,2956,2955,2945,2960,2997,2977,2940,3031,2945,3012,2912,3047,2943,2998,2990,3021,2931,3024,2945,2991,2961,2965,2992,0
3001,3009,2914,2992,2971,3024,3012,2949,2959,2913,3015,3014,2936,2922,3027,2976,3011,2990,2987,2975,2919,2976,2923,3054,2940,2922,2909,3023,2992,2997,2936,2956,2995,3014,3015,2918,3006,2945,3008,2897,2896,2998,2999,3011,2928,2978,2940,2969,2996,2977,3005,2929,3008,2963,2928,2957,2976,3010,2918,3042,2948,3009,3031,3035,2936,3003,2949,3027,2943,2914,3039,2992,2943,2977,2936,3041,2928,2999,2938,3007,2973,2934,2998,2925,3006,2908,3030,2981,3015,2979,3003,2988,3019,2976,2930,3027,2907,2914,3024,0
3031,2906,3035,2960,2976,3011,2917,3042,2977,3024,3040,2960,2984,3015,3015,3009,3011,2968,3039,2905,3015,2928,2999,2927,3026,2943,2970,2918,2971,3007,2930,3022,2928,3015,2999,2913,2950,2937,2960,2913,3011,3011,2881,2936,3035,2990,2999,3079,2994,2989,2904,2987,3018,2934,2969,3011,3031,2995,3027,2953,2911,2918,2965,2962,2992,2928,3047,2917,3063,2980,3023,2957,3024,2972,2939,2908,2992,2962,3005,3018,2920,3019,2953,2932,3008,2966,2963,2999,2938,3033,2928,2983,2961,2993,2979,2960,2979,3015,3051,0
2905,3055,2936,3056,2914,3007,2968,2973,2993,2999,2975,2983,2944,2987,3022,3023,3002,3009,2952,3024,2952,3031,2929,2967,2917,3001,2917,3021,2999,2974,3037,2960,2941,2995,2947,2983,3015,2905,2997,2929,2939,2933,3047,2907,3003,2946,3023,2923,3015,2984,3051,3015,2946,3023,2999,3055,3042,2930,3019,3006,2989,2983,3026,2935,2934,2995,3024,2947,3015,2962,3026,3003,2960,2944,2983,2995,2932,2978,3013,2922,3013,2929,2941,3011,2946,2991,2915,3031,2919,3044,2995,3055,2946,2942,3056,2946,3008,3036,2896,0
3040,2969,2922,2983,2917,2998,2998,2947,3049,2926,3043,2992,2923,3043,3022,2931,2923,3047,2920,2978,3022,2979,2935,3035,2965,2943,3019,2913,3041,2999,2923,2963,3009,3006,2923,3030,2945,2989,2940,3006,2979,2940,3044,2960,3024,3019,2975,3037,2980,2993,2958,2931,3022,2928,3025,2949,2932,3031,2943,2959,2969,2985,2981,2944,2907,3042,2975,2946,3024,3035,2932,2924,3002,3024,2991,2960,3028,2924,3015,2925,2926,3035,2932,2922,3024,2933,3042,2901,2970,2957,2945,2991,2998,2930,3005,2965,2985,2944,3057,0
3035,2971,2988,2928,3018,3019,2916,3009,2992,2921,2928,2940,2963,3034,2929,2934,2922,2964,3015,3023,2928,2973,2929,3006,2992,2908,2995,3015,2950,2975,2948,2981,2979,2967,2973,2941,3012,2973,2900,2998,2970,3031,2960,2977,2935,2979,2995,2900,2993,2929,3019,2945,2952,2928,2991,2941,2992,2960,2958,2971,2952,3021,2960,3012,2909,3041,2928,3034,2953,2955,3026,2941,3019,2957,2991,2960,2993,3007,2993,2951,2992,3008,2917,2920,3047,2916,3031,2957,2979,2917,3067,3009,3041,2941,3015,2914,2938,2983,2937,0
2979,3047,2922,3015,2924,2956,3003,2949,2992,2976,2960,2991,2920,2934,2993,2948,2940,2957,2960,2956,2992,2928,3021,2921,2982,2979,2963,2949,2970,2991,3008,3031,2940,2958,2934,2974,2905,3015,2958,3055,3015,2960,2960,2917,2956,3019,2992,2936,2992,3025,2925,3008,2919,3019,2943,3011,2998,3047,2929,2974,2974,2974,3005,2958,2960,2986,2999,3002,2934,2939,2924,3031,2881,3011,2928,2977,3025,2906,3017,2920,3011,2943,3039,2992,2997,3019,2927,2995,2926,2941,3043,2992,2922,3012,2936,3013,3022,2944,2955,0
2939,3024,2967,3021,3007,2954,2925,2945,2970,3010,2928,2994,2943,3024,2974,2977,2948,3035,3031,3007,2945,2925,3023,3038,2939,3040,3014,2929,2932,3003,2999,2939,2963,2937,2989,3035,3023,2926,2907,3043,2983,3007,2928,2995,2913,3012,2928,3038,2982,2995,3030,2947,3015,2998,2993,3015,2939,3047,2913,3027,2911,3031,2993,2928,2928,2945,3022,2915,3035,3007,2914,2973,2966,2980,3011,2914,3008,2999,3003,2982,2975,3046,2969,3037,2928,3055,2917,3041,2928,3041,2943,2979,2966,2979,3018,2963,2975,2947,3025,0
2928,2944,2995,2928,2981,2928,3008,2899,3042,3024,2914,2985,2944,2999,3023,2934,3045,3024,3054,2896,2979,2912,3014,2958,2967,2962,2955,3031,3009,2954,2920,3014,3004,3038,2923,2993,3015,2944,2963,2966,2985,2942,3088,2965,3010,2928,3011,2918,3003,2949,2990,2939,3006,2954,3011,2925,3024,2943,3006,3031,2936,2999,2938,3006,2912,2999,2986,2917,2960,2929,2944,2928,3005,2928,3019,2928,3015,2975,2986,2979,2960,2950,3003,2925,3023,2941,2992,2988,3000,2929,2904,3023,2992,2983,2987,2984,2967,2948,3031,0
2994,2967,3021,2918,2987,2979,2969,3031,3031,3038,2908,3025,3007,3006,2985,2939,3019,2943,2994,2901,2960,2971,2944,2983,3002,2979,2977,3038,2991,2960,2988,3043,2912,3046,3015,2981,2975,2983,2960,2958,2971,2996,2982,3021,3047,2929,3087,2956,2928,2932,3041,2905,2957,2987,2912,2924,2995,2943,2920,2912,2991,2948,3051,2925,3056,2961,3030,2941,3011,2891,3011,2944,3009,2937,2944,2923,3023,2922,2978,3027,2939,2944,2932,3028,3035,3008,2972,2995,3054,2973,2946,2949,3009,2932,3043,2928,3023,2949,3039,0
2989,2920,3009,2939,2960,2970,3008,2983,3028,2971,2976,2959,2988,3023,2950,2939,3004,3009,2975,3024,3058,2941,2928,2977,3019,2951,2910,3051,2956,2959,2921,3014,3014,2933,2974,2960,2989,3014,2964,2998,3003,3024,2929,3024,2960,3047,2992,3040,2926,3056,2985,2928,2967,2933,3014,2943,2921,2967,3011,3006,2954,2992,2940,3036,2929,3040,2928,3044,2961,3047,3031,2935,2954,3013,3053,3005,2959,2911,2955,2993,2958,2957,2983,2916,2955,2995,2943,2953,3002,2928,2992,2960,2995,3031,2917,2940,3015,2930,3047,0
2993,2923,2982,2993,2985,3041,2926,2928,3006,2906,2975,2959,2920,3046,2921,3031,2926,3030,2964,2961,2914,2904,3035,3043,2938,3059,2898,2995,3054,2993,2956,2946,3015,2993,2992,2943,3001,2901,2987,2950,2998,2943,3070,2960,3027,2908,3012,2924,3035,2931,3015,2954,2978,2998,2920,3023,2929,3008,2917,3024,3047,2925,3008,2891,2975,2905,3056,2971,2981,2945,2970,3024,2925,2989,2928,3023,2998,3040,2917,2955,2968,2988,2928,2968,2985,3019,2909,2986,3001,2916,2925,2931,2988,3003,3041,2921,2966,3001,2943,0
3022,2928,3011,2931,3051,2928,3019,2917,2995,2925,3009,2927,3024,2997,2974,2935,3006,3023,3021,2936,2941,2952,2993,2990,2973,2936,3027,2938,3006,3011,2951,3023,3046,2943,3027,2921,3055,3009,2956,3023,2926,2982,3006,2940,2928,2917,2979,2943,3043,3024,2980,2960,3006,3002,2934,3038,2940,3005,2998,2977,2998,2963,2971,3023,2948,3010,2972,2947,2932,2924,2937,3001,3029,2928,2940,3033,2922,3037,2937,3023,2960,2999,2945,3011,2981,2999,2958,2916,3022,2995,2932,2943,2924,2970,2971,2963,2950,2953,3012,0
2944,3018,2923,2980,2919,3059,2960,2993,2920,2960,2941,2995,2920,3023,2951,3019,2918,2917,2965,2930,3014,2999,2959,2941,2957,3027,2948,3027,2940,3042,3011,2940,2933,3031,2956,2923,3015,2924,3011,2915,2965,2987,2991,2909,2962,2925,2931,2925,2967,2961,2995,2988,2918,2969,3009,2929,2978,2960,2974,2921,2992,3024,2930,3007,2953,2958,2922,2990,2992,2955,3026,2896,3006,2979,2932,3011,3022,2905,2986,2929,2964,2923,3047,2933,3022,2923,3023,2946,2943,3031,2960,2945,3019,2937,2974,3041,2926,3008,3042,0
2928,2964,2923,2953,2995,3023,2971,3055,2927,2994,2902,2980,3035,2975,2989,3025,3015,2945,2928,3051,2960,3042,2908,2980,2945,2990,3024,2929,3039,3027,3037,2955,2911,3003,2992,2928,3011,2966,2979,3011,2905,2994,2969,3027,2920,2986,2940,3041,2906,3015,2995,2999,2979,3011,2934,2994,2948,2970,3054,2907,3031,2986,3013,2943,2993,2994,3011,2982,2991,2960,2990,2995,2926,2992,2971,2998,2961,3023,2933,2937,3031,2920,2944,2979,2933,2994,3009,2955,2989,2995,2947,2928,3031,2928,3039,2933,2975,3023,3006,0
2993,3003,2920,3011,3007,2999,3008,3003,3015,2961,2952,3009,3023,2913,2920,3043,2928,2933,3034,2955,3030,2953,2958,3039,2925,3055,2928,2928,3023,3041,2964,2963,2932,3019,2978,2999,2947,2985,2969,2928,2950,3022,2993,2992,3007,2974,2976,2982,2943,2992,3024,3047,2898,3007,2911,3031,2949,3022,2915,2972,3031,3003,2926,3006,3038,2898,2978,2971,3034,2960,2960,3028,2979,2957,3014,2961,2978,2982,2972,2937,2943,3012,2897,3047,2911,2913,3031,2912,2928,3011,2936,2988,2943,2999,2977,3042,2931,3030,2905,0
2994,2978,2928,2973,2970,3003,2958,2955,3003,2993,2927,2925,2982,2944,3027,2917,2943,2955,2961,2891,2999,2936,3030,2972,3055,2923,2992,2917,3010,2977,2934,2974,2924,3071,3007,2950,2975,2951,2994,2998,2992,3023,3003,2927,2975,3035,2978,3005,2972,3019,2957,3027,2954,2967,3010,2924,3043,2995,2991,2987,2954,2991,2946,2977,2923,2981,3008,2926,2895,3045,2961,2975,2968,3010,2985,3018,2960,2983,2992,2963,3008,2942,2943,2975,2926,3011,2963,3019,2991,2933,3027,2993,3023,3022,2938,2951,3006,2992,2970,0
2960,2945,2992,2931,3063,2932,3031,2928,3009,2922,2996,2992,2928,2953,2933,3021,2922,3008,2943,2959,3027,2970,2948,3016,2926,2994,2985,2939,3025,2952,3008,2977,2944,2938,3018,2941,2952,3023,2910,2918,3027,2939,2972,2949,2960,3000,2911,2953,2960,2969,2909,2977,2926,2967,2928,3015,2926,3001,3027,2913,2951,2896,2992,2943,2976,2983,2950,2963,3010,2962,2973,3035,2976,2926,3008,2920,3024,2899,3070,2971,2936,3025,2983,2942,2932,3029,2957,2950,2981,2992,3035,2954,3035,2971,2992,2929,2967,2905,3030,0
2969,2908,2913,3041,2906,3007,2917,2998,2916,2915,3023,2940,2915,3047,2913,2972,2951,3023,2937,3017,2975,2998,2922,3022,2992,2885,3024,3023,3046,2923,3057,3007,2887,2946,2999,2947,3038,2915,2967,3023,3044,2928,3015,2930,3025,2913,2934,2959,2957,2927,2956,2991,2989,2946,3023,2992,3015,3022,2927,2950,2969,2921,2958,2928,2999,2902,3035,3013,2978,3019,2928,3024,2924,2960,2992,2922,3001,2963,2940,2904,3041,3018,2921,3015,2961,3023,2947,3028,2954,2946,3043,2960,2979,2927,3031,2911,2936,2924,2966,0
3001,3083,2993,3010,2915,2958,2911,2917,2947,2934,2928,3004,2981,2989,3025,2990,2929,2960,3056,2963,2978,3017,3033,2964,2950,2965,2967,2932,2966,3006,2960,3051,2960,3050,2932,2992,2962,2961,3010,2937,2933,3022,2957,2994,2913,3003,3010,2945,2946,3027,3031,2975,3015,2924,2933,3031,3022,2928,2960,3010,2995,2959,2931,3009,2962,2960,3055,2928,2923,3005,3015,2937,3015,2928,3021,2960,3063,3041,2950,3013,3009,2913,2967,3046,2972,3025,3010,3014,2937,2972,2920,3008,3047,2962,2966,3039,2958,2993,2929,0
2948,3011,3014,3022,2933,2939,2920,2993,2953,3019,3054,2973,3043,2954,3039,2990,3013,2986,3005,2965,3013,2985,2950,2958,2982,3005,2959,3031,2985,2925,2923,3010,2920,3031,2973,3039,2963,3021,2929,3047,2933,3014,3022,2960,2933,3024,2999,2976,3028,3017,2991,2976,3007,2976,2977,2999,2959,2951,3014,2937,3023,2928,3003,2997,2923,2949,3014,2960,2982,3022,3012,2932,2995,2954,2995,2951,3030,2974,2960,3004,2915,3003,3015,3013,2999,2929,2964,2983,2991,2947,2928,2910,2925,2964,2940,2987,2922,2956,2944,0
3008,2928,2980,2919,3007,2935,2960,2995,2992,2924,2955,3010,2970,2970,2965,2995,2921,2977,2920,3047,2976,3053,2928,3005,2928,2999,2945,3011,2929,2987,2983,2960,2932,2979,3008,2987,2947,2982,2966,2982,2935,2997,2909,2926,3024,2916,3008,2995,2943,2960,2945,2935,2949,3005,2928,3027,2910,2981,2976,2917,2917,3003,3023,3006,2916,3005,2928,3025,3013,2927,3008,2977,2911,3011,2916,2992,2937,2932,3009,2992,2936,2925,2969,2928,2961,2938,2995,2978,3021,2960,2999,2965,2939,2992,3051,2944,2992,2979,2928,0
3019,2964,2948,2921,3015,2972,3003,2935,3021,3015,2936,3031,2912,2991,2939,3009,2928,3040,2928,3017,2937,2996,2912,3030,2929,2960,2917,3002,2999,2896,3006,2942,3008,2971,2978,2896,3014,2967,2940,2966,2920,2980,2970,3019,3010,2979,2925,3027,2926,2905,3043,2928,3039,2998,2933,2966,2923,2975,3001,3018,2937,3024,2993,2940,3024,2921,2991,2964,2950,3010,2913,3035,2928,2947,2966,3008,2927,2928,2992,3003,2994,2925,2987,2920,3010,2948,2979,2913,2928,3009,2962,2982,2927,3023,2975,2922,2911,3015,2957,0
3015,2997,2957,2917,3030,3015,2960,2971,2971,3015,2935,2953,2970,2943,2991,2931,2950,2961,2974,2913,2966,2924,2920,3003,2956,2943,2990,2911,2986,2937,2950,2990,2945,2922,2992,2898,2975,2980,2986,2929,2999,2983,2988,2913,3034,2997,2985,3010,3014,2943,2959,2907,2964,2902,2981,2957,3035,2907,3004,2930,2953,2979,2960,2992,2929,3021,2928,2914,2937,2971,2922,3005,2949,2941,2953,2975,2938,2985,2972,3024,2984,2997,2920,3019,3011,2920,3023,2944,3009,2985,2938,2961,2954,3031,2956,2962,2994,2977,3024,0
2907,2960,2974,2999,3010,2960,2924,2935,3008,2981,2928,3015,2930,2959,2979,2916,2997,3003,2918,3011,2917,2947,3039,2921,3006,2991,3008,2945,2906,3025,2926,2999,2999,2999,2960,2999,3008,2928,2999,2938,2928,2926,3008,2958,3024,2931,2982,2960,2928,3013,2999,2999,2909,2949,2937,3006,2921,3030,2933,2992,3033,3013,2900,3055,2904,3051,2896,2992,2899,2953,2928,2983,2985,2928,3019,2970,3009,3024,2951,2955,2982,2950,2928,2995,2974,2910,3047,2927,2971,2912,2960,3009,2925,2986,2953,2980,3023,3010,2992,0
2944,2928,3019,2939,3014,2959,2909,2951,2974,3011,2927,2963,2975,2917,3006,2907,3019,2927,3019,2925,2922,3011,2925,3022,2916,2937,3002,2929,2960,3014,2947,2928,2952,2944,3003,2940,2968,3010,2944,3011,2958,2997,3019,2936,3008,2926,2994,2948,3027,3042,2924,3023,2926,3024,2986,2960,2966,2959,3031,3023,3019,2978,2962,2957,2977,2929,2967,2992,2998,2973,2939,2998,2926,3025,2969,2953,2939,2928,3027,2928,3008,2930,2961,3012,2944,2962,2953,2988,2947,2989,2949,2909,2965,3002,2974,3024,3008,3017,2987,0
2933,3045,2979,2960,2955,3011,2963,2993,2975,2932,2953,2975,2958,2926,3055,2978,2943,2944,2930,3004,2957,3003,3019,2991,2982,3021,2911,3023,2993,2924,3035,3003,3040,2944,2960,2940,2940,2945,2994,2954,2997,2958,3007,2929,3040,2943,3001,3018,2959,2999,2933,2977,2928,2979,2987,2908,2922,3015,3014,2935,3043,2927,2979,2930,2921,2999,2987,2947,2937,2925,2939,2941,2964,3007,3003,2997,2916,3039,2958,2941,2929,3008,2919,2956,3023,2988,3031,3018,2943,2992,2961,2951,2929,3002,2911,3023,3004,3002,3011,0
2958,2975,3024,2927,2958,2932,2889,2981,3003,2989,2971,2965,2960,2995,2975,2987,2999,2937,2986,2945,3031,2912,2988,2971,2960,2934,2964,2955,2991,3047,2980,2939,2896,2975,3024,2993,2943,2963,2982,2961,3009,2920,2983,3024,3024,2995,3011,2957,3038,2910,2987,3015,2928,3030,2951,2920,2973,2910,2986,2952,2967,2938,2999,2958,3003,2919,2989,2953,2995,2937,2999,3008,2996,2999,3003,2951,2956,2913,2992,3041,3011,2928,2912,3028,2977,3068,2943,2992,2913,2950,2911,3007,2964,2960,3007,2996,2906,2960,2961,0
2991,2959,3035,2928,2972,2957,2956,2993,2928,3043,3011,2901,3038,3015,2991,2941,2999,2936,3053,2926,3006,2973,2939,2983,2929,3031,2938,2923,3008,2976,2978,2960,2943,3008,2928,2945,2927,3011,2921,2921,3067,3018,2976,2952,2983,3024,2896,2950,3055,3025,3019,2974,2965,2944,2998,2940,2935,2992,2992,2966,3021,2928,2928,3023,3005,2923,2960,2928,3011,2955,2930,3009,2925,3008,2941,3023,3030,2939,3017,2999,2959,3025,2960,2928,2962,2959,2946,2981,3003,2933,3020,2992,3035,2950,2928,3024,3011,2935,3031,0
2928,2982,3025,2930,2999,2986,2997,3010,2933,2999,2992,2945,3018,3023,2933,3011,2946,3015,2916,2942,3015,2898,2992,2941,3030,2928,2990,2978,3024,2911,3010,2987,3006,2977,2970,2936,3010,2916,3027,2928,2993,2925,2946,3022,2948,3009,2924,3030,2928,2991,2927,2964,3008,2995,2920,2940,3054,3030,2967,3030,2921,2916,3030,3008,2958,2960,3024,2978,2994,2928,2978,2917,2965,2960,3005,2966,2892,3023,3020,2939,3012,2993,3004,2943,2955,3061,3044,3031,2926,3022,3007,2935,2928,2971,3011,3014,2958,2963,3056,0
2925,3024,2914,3043,3001,2941,3008,3035,3050,3001,3047,2941,3047,2942,3019,2928,2999,2961,3015,2945,2979,2975,2987,3008,2967,3023,2944,3023,2961,3006,2945,2991,2965,3040,2928,3015,2988,2975,2980,2993,2992,3003,2968,3020,2929,2934,3019,2930,3031,2962,2983,2960,2928,3026,2973,2993,2955,3021,3030,2959,3009,2975,2924,3031,2971,3027,2990,2918,3025,2945,3043,2960,2915,3015,3010,3015,3010,2961,3032,3022,3035,2919,2994,2993,2937,3017,2935,2999,3005,2926,2928,2932,2936,2899,3018,3023,2960,3040,2930,0
2983,2942,3013,2966,2915,3046,2922,3053,2946,3006,2987,3024,2991,3051,2944,2995,3003,3023,2992,2920,3037,2938,3024,2992,2946,2948,3023,2915,2994,2942,2968,2928,2960,2983,2941,2999,3023,2999,3015,2911,3035,2930,3045,2913,2994,2928,2985,3017,2947,2990,2939,2938,3007,2968,3031,2968,3055,2934,2983,2950,2944,2977,2979,3039,2954,2982,3020,2925,2953,2988,2943,2963,2992,2980,3027,2941,2967,3040,2955,2992,2983,2925,2928,2971,2951,2947,2999,2978,2997,2940,2963,2928,2965,2964,2971,2933,3069,2962,3044,0
2977,2936,2928,2979,3009,2929,3024,2941,3023,2928,2933,2970,2929,3007,2898,3070,2960,3009,2914,3011,2952,3022,2928,3008,3035,3019,2925,3035,2921,3009,2943,2949,3057,2955,3002,2961,3019,2954,3005,3013,2936,2991,2954,2963,2956,3041,3013,2933,2978,2934,3021,2928,3013,2928,2961,3023,2943,2992,3024,2985,2992,3015,2987,2989,2961,2967,3023,2974,2923,2956,3043,2942,2992,3023,2907,3024,2905,2949,3018,2998,2928,3015,2972,3023,2975,2928,2999,2956,2989,2924,3028,2983,3039,2949,3012,2912,3003,2988,2928,0
2982,2965,2988,2950,3015,2913,3014,2966,2979,3022,2928,2959,3007,2918,2981,2960,3040,2946,2916,2964,3021,2925,2967,3019,2900,3044,2906,3026,2983,2974,2956,3018,2943,2944,2945,2980,2992,2993,2987,2975,2985,2923,3031,2942,3011,2928,3029,2959,2911,2975,2961,3031,2939,2928,3003,2942,3047,2937,2960,2978,2918,3029,2928,2925,2935,2912,2987,2977,3035,2927,2975,2947,3014,2912,3025,2923,3027,2928,3022,2942,2985,2983,2987,3027,3012,2942,2930,3035,2992,2989,2995,2967,2953,2965,2983,3045,2959,2928,2981,0
2992,3009,2965,2951,3024,2988,3031,3040,2921,3041,2963,3019,2954,2993,2981,2970,3006,2928,2936,2944,2911,2991,2965,2942,2913,3023,3026,3009,2922,2991,3024,2936,3019,2928,2922,3006,2925,2926,3027,2928,2917,2991,3009,2977,2946,3002,2989,3005,2895,3022,2942,2987,2960,3011,2952,2979,2992,2961,2966,2896,3039,2911,3031,2929,2928,2999,2983,3030,2909,3039,2952,3006,3024,2982,2998,3003,2893,2915,3013,3002,2946,2997,2999,2953,2998,2943,2966,2928,2935,2986,3003,3023,2974,2947,3023,2975,3024,2896,2928,0
2960,2896,2920,3024,2930,3008,2944,2974,2944,3024,2953,3003,2970,2947,2960,2985,3003,3008,2939,3029,2922,3023,2950,2979,2963,2995,2925,2928,2922,2993,2929,2982,2961,2922,2976,2986,3022,2980,2911,2928,2956,2955,2962,2987,3019,2960,2999,2942,3030,3003,2949,3029,2905,3019,2913,3031,2923,2998,2985,2969,2998,2961,2987,2966,2994,2915,2988,2985,2960,2991,3000,2992,2960,3024,2943,2960,2910,3039,3017,2985,3003,2942,2995,2931,3009,2992,2971,2932,2975,2916,3043,3024,3023,2998,2936,2973,2946,3045,2923,0
3042,2928,3015,2983,2991,2921,3021,2937,2980,2914,2966,2977,2990,2917,2962,3027,3011,2944,2991,3040,2939,3023,2960,2929,2938,3046,2919,3014,2928,2953,2977,3030,2912,3024,2917,3008,2940,3009,2944,2970,2922,3013,2943,3007,2934,2924,3019,2948,2900,2924,2927,2914,3002,2937,2999,2991,2990,2995,2910,2992,3031,2990,2955,3027,2916,3043,2930,3007,3007,3028,2974,2986,2929,3027,2973,2960,3047,2924,2999,2959,2955,2973,2995,2992,2960,3024,2923,2928,3015,2938,3037,2960,2999,2946,2992,3027,2941,2963,3027,0
2955,3008,3025,2913,3006,2971,3000,2928,3010,2915,3055,2947,2928,3027,2923,2998,2978,2928,2944,3039,2970,2933,3023,2948,2971,2920,3011,2937,3023,2983,3011,2974,2962,2945,3005,2945,3027,2925,3008,2927,2937,3025,2960,2972,2935,2990,2929,2944,2949,3035,2976,2994,2928,3041,3003,2933,3037,3019,2928,2943,2992,2978,2947,3010,2961,2942,2979,2994,2883,3021,2981,3009,2975,2936,3038,3003,2932,2979,2929,3031,2957,2948,2997,2944,2982,2943,3012,2960,2987,2990,3038,2969,2995,3025,2995,2992,2970,2992,3024,0
2947,2945,2992,2960,2961,2937,3019,3030,3019,2932,2943,3007,2941,2977,2997,2995,2925,2976,2960,2926,2981,3019,3005,2992,3004,2971,2958,2993,2925,3011,2942,2951,2936,2924,2947,2950,3014,2928,3008,3014,2916,2967,2917,3063,2928,2997,2915,3035,2930,2969,2952,3017,2986,2928,3024,2909,3009,3038,2952,2979,2924,2939,3023,2989,3008,2999,2944,2995,2987,2960,2990,2944,2998,2918,3006,3008,3025,2971,3008,2975,2970,2992,2930,2953,3006,3043,3036,2930,3027,2949,2994,3040,2928,3011,2946,2979,2962,2981,3009,0
2954,2915,3034,3021,2981,2991,3019,2944,2963,2928,3013,3024,3008,3043,2929,3024,2908,2992,3006,2960,2945,2948,3008,3019,2991,2981,3029,2929,3023,2977,3006,3009,3043,2960,2964,3043,2927,3006,2928,3021,2937,3038,2994,3006,2892,3038,2943,3053,3035,3039,2928,3030,2928,3031,2928,2961,3031,2929,2965,3002,2953,2936,2965,2930,3006,2966,3011,2941,2933,2991,3009,3007,3042,2974,2991,2956,3015,2965,2960,3011,2972,3007,2982,2980,2928,2959,2995,2980,2995,2936,3002,2972,3024,2941,2978,3038,3039,2913,3045,0
2979,2959,3024,2993,2987,2946,2918,3008,2955,3019,2944,3027,2936,3009,2976,2998,2956,3008,2924,3039,2944,3019,3024,2997,3024,2947,3027,2953,3015,2969,2946,3011,2954,2971,2999,3043,2936,2942,3051,2983,3015,3044,2947,2927,3015,3003,2938,3019,2972,2957,3019,2998,2930,3013,2979,2938,3023,2997,2954,2979,2940,2971,2983,2928,2954,3039,2916,3009,2930,3023,2936,3011,2943,3028,3025,2963,2957,2917,3019,2949,3005,2999,2932,2979,3018,2963,2936,2939,3005,2959,2943,2937,2943,2935,3026,2933,3022,2963,2975,0
3009,3006,2937,2935,2960,2992,3002,3023,3038,2912,2960,2992,2912,3022,2944,3011,2924,2929,2987,2937,2911,2956,2933,3022,2941,2999,2943,2913,2974,2913,3063,3007,2964,2969,3015,2978,2926,2933,3018,2931,3002,2928,3026,3054,3039,2928,2921,3039,2939,3022,2936,2913,2929,2999,2944,2928,3015,2932,2977,2928,2941,3023,2963,3020,2953,2988,3001,2975,2919,3014,2930,3006,3033,2955,2986,3015,2960,2958,2920,2922,3006,2999,2960,3005,2983,2993,2960,3019,2987,2950,3013,2926,2992,2956,2940,3024,3010,2913,3015,0
2974,2992,2942,2935,3027,2915,3004,2982,3006,2996,2953,3022,2984,2955,3030,2928,3027,2930,2994,2910,3025,2937,3022,2936,2973,3011,2960,3023,2951,2999,2906,3007,2981,2928,3011,3031,2964,3001,3023,2980,2953,3003,2908,3025,2947,3035,3038,2921,2983,2894,3015,2933,3026,2987,2965,2931,2986,2960,3023,2975,2930,2992,2938,2928,2982,2979,2975,3011,2933,2973,2930,2967,2925,3044,2935,3045,2962,2980,2924,3008,3003,2928,2960,2986,2999,2935,2988,2948,2978,3003,3031,2933,2974,2995,2951,3010,2959,3046,2945,0
2961,2997,2942,2932,2921,3007,2927,3025,2934,3010,2911,3002,2954,2955,2992,2960,2992,2994,2960,3019,2962,3030,2971,2980,2953,2962,3009,2973,2968,2967,2955,2992,2928,2999,2992,2923,2949,2948,2999,2971,2937,2940,2962,2977,2932,3027,2913,2907,2975,2934,3035,2937,3018,2914,3008,2911,2990,2987,2920,2951,2960,2961,3024,2951,2925,2981,2928,2938,3035,2944,3024,2960,2943,3015,2986,2924,3042,2911,3042,2925,3014,2926,2999,2909,3006,2971,2946,3004,2924,3024,2952,2976,3023,2976,2993,3003,2970,2924,2944,0
2922,2999,2954,2991,2928,2938,3035,2909,3031,2973,2978,2975,2992,2997,2975,2926,3021,2976,3011,3010,2992,2917,3030,2916,3011,2892,2971,2992,3015,2967,3031,2968,2935,3024,2976,2928,2908,3015,2965,2934,2991,2997,3035,2915,2975,2928,2945,3019,2992,3023,2931,2960,2997,2913,3021,2929,2967,2957,2991,2931,3024,2925,2975,2934,2999,2915,3005,2918,2950,3024,2929,3009,2952,2980,3023,2986,3023,3019,2940,2943,2975,3031,2928,3013,2955,3011,2967,2980,2927,2960,2978,2939,3027,2928,3012,2979,2924,2967,2929,0
2921,2935,2946,3020,2972,3011,2965,2960,2990,2938,2993,2943,3007,2979,2923,3040,2912,3022,2891,2961,2992,2960,2899,3007,2992,2992,3024,3015,2995,3003,2971,3023,2945,3011,2918,3022,2969,2909,3056,2910,2995,2944,3029,3011,3023,2929,3023,2995,3010,3013,2969,2913,2999,2965,2913,2995,3006,2928,3024,2942,2979,2946,3005,3011,3010,2952,2960,2920,2991,2921,2911,3015,2923,3061,2928,3056,2927,3031,2932,2920,2969,3015,2962,3024,2942,2975,2992,2993,2941,3030,2925,3003,2935,2917,2993,2921,2950,2972,2946,0
2985,2913,3026,2999,2915,2931,3015,2917,3042,2974,2982,3031,2924,2995,2941,2961,2995,3035,2930,2992,2908,3011,2995,2925,2967,2993,2963,2921,3031,2929,2936,2925,2941,3002,2910,2987,2996,2967,2997,2928,3031,2928,3031,2940,2936,2985,2987,2937,2984,2991,2974,2981,2954,2933,3039,2985,3055,2990,2928,3043,2898,2988,2983,2979,2943,3003,2898,2989,2928,2991,2993,2973,2953,2963,2991,3008,2975,2935,2983,2910,3038,2931,2989,3019,2924,2960,3018,2977,3024,2918,3019,2908,2988,2987,2928,2921,2959,2961,3023,0
2933,2975,2960,3014,3004,2944,2972,2975,3041,3087,3008,3023,3067,2929,2992,3026,2905,2972,3039,2957,3027,2908,2966,2925,2944,3011,2938,3019,2939,3008,2943,3013,2932,2991,2953,2959,2955,2929,2940,3024,2932,3036,2967,3030,2982,2993,2998,3051,2928,3015,2940,2987,2992,2909,3031,2974,2995,2973,2992,2992,3011,2934,3015,2995,2978,3031,3021,2941,3007,2913,3014,2965,3045,2967,3023,2900,2912,3015,2940,3039,2979,2958,2913,3026,2915,3031,2964,2995,3008,3056,2944,3011,2948,2968,3059,2905,3025,2928,2932,0
3008,2915,3012,2925,3039,2941,2992,2964,2960,3007,3011,2928,2947,3015,2928,3026,2976,2981,2961,3011,2912,3023,2940,3038,2919,2918,2924,3007,3005,2960,3043,2953,3012,2919,2912,2939,3024,2933,3025,2914,3037,3024,2958,2964,2931,3059,2982,2926,3018,2929,2990,2947,2995,2944,2970,2974,2971,3024,3027,2941,2934,2998,2982,2987,3024,2992,2945,3023,2916,2933,2943,3010,2913,3022,2938,2934,3019,3031,2932,3010,2938,3029,2931,3042,2993,3003,3005,3027,2994,3051,3051,2989,2963,3003,2988,3007,3021,2919,3019,0
2932,3011,2988,3009,2958,2959,2935,2944,2976,2983,2993,2954,2999,2999,2904,3013,2956,3057,2941,2994,3020,2984,2934,2924,3024,2910,2997,2920,2950,3009,2949,3038,2947,2970,2999,2990,2975,3006,2995,2980,2940,3024,2954,2975,2929,2928,3007,2913,3039,2925,2960,2949,2928,3027,2944,2955,3043,3055,2973,2987,2945,3006,2937,3043,2911,3025,2941,3070,2949,2947,3009,3058,3015,2943,3021,3056,3033,2913,3027,2987,2928,3022,2996,2914,2940,2983,2950,2995,2954,2941,2961,3031,2967,2925,3042,2922,3035,2933,3022,0
2982,2928,3007,2935,3034,2944,3041,2965,2993,2944,2985,2932,3019,2951,2951,3025,3022,2943,3025,2959,3035,2992,3012,3005,3025,2970,3019,2928,2928,3035,3056,2989,2939,3033,2928,3045,2921,2929,3010,2951,3010,2949,3023,2917,3024,2927,3047,2920,3020,3024,2953,2966,3015,2960,3021,2940,3002,2960,2981,2920,3031,2968,2967,3011,3037,2985,2928,2944,2951,2948,2932,3035,3047,2964,2997,2928,2957,2953,3041,2941,2965,3008,2975,2999,3051,2922,2938,3024,2952,2996,2966,2973,2982,3029,2935,2936,3015,2928,2951,0
3023,2926,2925,3023,3039,3031,3013,2963,2937,2917,3020,2928,2931,2955,3011,3019,3003,2976,2973,2969,2928,3008,3003,2925,2955,2963,2973,3010,2979,2923,2995,2949,2962,2961,2961,3002,2998,2998,2985,3015,2916,2948,3031,2952,2990,2924,3047,2932,3008,3019,2966,2975,3043,2988,2945,3030,2920,3023,2930,3024,2960,3019,2926,2916,2965,3040,3003,2932,3047,2944,3024,2972,3024,2919,2944,2928,3063,2896,3024,3031,2949,2928,3058,2960,2960,2995,2954,3051,3023,2928,3023,2949,2972,2947,2938,2945,2977,2946,2993,0
2918,2915,2960,2954,2982,2986,3021,2992,3023,3011,2989,2960,3003,2992,2950,3030,2991,2951,2963,3031,2920,2980,2968,3023,2964,3035,3011,3007,3003,2899,3014,2917,2923,3005,2933,3029,2925,3022,2988,2943,2998,2941,3023,2928,3014,2939,2932,3006,2912,2960,2914,2985,2980,3019,3042,2991,2952,3005,2974,2908,3043,3025,2972,3051,2940,2925,2945,2957,2925,2929,3006,2917,2980,2944,2976,2963,2967,2951,2947,2946,3003,2979,3015,2928,2971,3001,2983,3038,2907,2958,2969,2960,2987,3000,2959,3019,2958,3003,2979,0
2930,3009,2936,3008,2969,3018,2928,2972,2934,2957,2982,3008,3007,2946,3007,2930,3024,2971,3023,2928,2955,2988,3001,2979,3016,2960,2998,3022,2937,3047,2910,3007,2959,2986,3013,2929,2959,2986,2958,2928,3009,3006,2965,2945,2987,3009,2911,2961,2969,3038,2949,2991,2925,3008,3043,2920,2983,3037,2967,2925,2943,3015,2921,2960,2928,2958,2995,3004,2956,3007,2926,3026,2965,3007,2953,2969,2935,2966,2938,3009,2914,2986,2931,2978,2928,3008,2958,2928,2992,2930,3008,2971,2984,2965,2975,2947,2921,3020,3043,0
2957,2986,2941,2978,2913,2991,2969,2921,2999,2992,3024,2909,2914,2920,2990,2979,2928,2911,3005,2960,2999,2964,3003,2930,2911,3015,2909,3006,3006,3008,2916,3021,2914,2934,2912,2911,2953,2957,2991,2961,2932,2961,2911,2998,2951,2941,3041,2926,2998,2960,2960,2992,2928,3031,2918,3011,2936,2931,3027,2962,2958,2902,2971,2999,2992,2924,2933,2960,3024,2983,2921,2937,2977,2904,3023,2951,2992,2969,2908,2925,2928,3011,2971,2992,3002,2969,2994,2929,2935,2945,3031,2931,2944,2950,2998,2914,2929,2921,2953,0
2915,2986,2924,3022,2957,3041,3014,3012,3031,3030,3015,2927,3021,2997,3015,2978,2935,3015,2912,3006,3007,3011,2938,3019,2913,3014,2930,2975,2970,3027,2928,3007,2960,3015,2928,2926,2989,3024,2927,3056,2997,3027,2921,2928,3019,2993,3005,2954,2983,2984,3042,3013,3014,2960,3024,2913,2928,2989,3013,2928,3007,2917,2938,2956,2977,3057,2992,3015,2971,2969,2974,2962,3002,2910,2910,2996,3006,3057,2939,2987,2949,2913,2993,2913,2971,2977,3026,2958,2971,3001,2949,3019,2992,2977,3024,3022,2925,3024,2991,0
2957,2990,2989,2960,2951,2923,2961,2940,2943,2917,2990,2957,2931,3024,2906,3024,2930,3046,3013,2960,2998,2928,3043,3023,3021,3007,3008,3004,2999,2953,3015,2917,3015,2963,3024,2929,2962,2943,3010,2957,3020,2928,3018,2896,2998,3019,2920,2929,3006,2932,2943,2985,2995,2995,2958,3055,3015,2953,3045,2938,2926,3009,2959,2961,2930,2997,2950,2977,2992,2913,2942,2983,2975,3006,2975,2966,3003,2960,3010,2977,2927,3024,2960,2962,2997,3010,2934,2947,2937,3019,2921,2990,3019,2928,2989,2964,2936,3019,3014,0
2931,2955,2986,2962,2990,2992,2928,2991,3015,2962,3056,2915,2957,3029,2945,2995,3027,2913,3009,2977,2974,2960,2959,2949,2917,3019,3012,2993,2930,2967,2949,3003,2987,2907,3029,2918,2920,2931,2971,2950,2923,2938,2987,2982,3019,3003,3003,2995,2968,3039,2929,3027,3038,2957,2995,2975,2955,2920,3010,2915,2948,2943,3042,2998,2963,2990,3011,2942,2989,2986,2944,2963,2953,3011,3011,2974,3010,2985,3014,2925,3027,3014,2920,2928,2915,2951,2931,3029,3015,2963,3027,2916,3024,2942,2951,2943,2975,3038,2946,0
2997,2994,3011,2947,2948,3010,2969,2964,2925,3023,2974,2937,3020,2973,3010,2943,2965,3008,3025,3013,3006,2923,3025,3024,3065,3031,2960,2966,2980,3024,2936,2978,2993,2998,3026,3017,2920,2961,2920,2926,3013,2927,3023,3002,2961,3026,3003,2904,2960,2930,2993,2995,3000,3017,2917,3002,2943,2980,2935,2981,2978,3015,2960,2943,2955,2970,3024,2949,2942,2980,2978,2987,2925,2985,3037,2977,2970,2995,2951,3015,2950,2916,3050,2907,2998,3025,2937,2997,2952,3014,2966,2944,2977,2928,3007,2964,2953,3013,2987,0
2998,2929,3026,2960,3054,2965,2897,2987,2907,2937,3008,2971,2972,2989,3071,3027,2988,3001,2931,3027,2928,3013,2905,3047,2933,3008,3035,2928,2960,2995,3030,2977,2954,3027,2967,2995,2999,2912,3006,2955,3011,2906,3024,3015,2929,3035,3054,2912,2916,2991,2929,3019,2963,3003,2929,3020,2967,2912,2990,2992,3007,2949,2937,2949,3004,2983,2959,3006,2909,3024,2992,2991,2989,3023,2926,2960,2961,2980,3010,2928,3047,2955,3022,2936,3031,2949,2979,2995,3019,2983,3007,3004,2932,2979,2913,2960,2942,2993,2977,0
3029,2977,3010,3008,2907,2988,2953,3007,3006,2956,3035,2912,3022,3021,3018,3015,2945,2977,3022,2925,3007,3024,3010,3015,3008,2924,2941,3037,2991,3021,2937,2966,3022,2952,2958,2965,2946,2989,2967,3018,2925,3043,2940,3039,2945,3012,2965,2963,3024,2983,2947,3039,2979,2941,3025,3035,2992,2978,2963,2975,2975,2953,2963,2938,3030,2960,2953,3014,2965,2960,2973,3007,2991,3041,2962,2967,2928,2999,2991,2960,2995,3005,2936,3037,2919,2928,2942,3038,2961,2970,2940,3024,2960,3009,2937,2991,2999,3023,2949,0
2969,2994,3019,2995,2960,2994,2969,3004,2928,3018,2928,3026,2987,2927,3003,2946,2983,3080,2947,2976,2913,2935,3055,3030,3003,3087,2962,2963,2996,3056,2913,3021,2980,2952,3006,2944,3003,2939,2982,2922,2965,2924,2946,3013,2925,3009,2921,3011,2975,3007,2920,2989,2962,2945,2970,2999,2983,2991,2942,2917,3027,2978,2960,2930,3015,2928,2992,2929,3041,2925,2977,2969,3024,3000,2940,2957,2935,3021,2947,3037,2916,2929,2998,2922,2928,2953,3056,2921,3011,2955,3025,2927,3021,2918,3019,2931,3027,2966,2983,0
3019,2997,2918,2944,2938,3011,3019,2922,2999,2975,2939,3003,3018,2998,2997,2911,2993,2928,2929,3022,3023,2992,3006,2926,2986,2945,2937,2968,3024,2931,3008,3019,2984,3012,2914,2998,3019,2921,2953,2966,2987,3024,2987,2927,3009,2910,2970,2949,2953,3046,2984,2922,3055,2980,3051,2915,2946,3019,2977,2995,2948,3022,2950,2901,2991,2992,2967,3007,2933,3022,2929,3006,2911,3013,2928,3008,2915,2996,3039,3014,2896,3023,2957,3026,2931,2932,3062,3041,2986,2917,3063,3071,2987,2928,3001,3005,2992,2928,3010,0
2946,2910,3015,2928,3023,2944,2956,2995,2931,2954,3011,2956,2916,3008,2970,2938,2960,2979,2912,2928,2999,3031,2981,2997,3063,3003,2951,2929,2992,2992,2943,2914,3023,2912,2948,2963,2944,2968,2992,2981,2945,3035,2928,2911,3003,2950,2965,2927,3009,3009,2951,2941,2944,2928,2949,3029,2960,2999,2907,2955,2981,2978,2940,2970,2992,3043,2951,2992,2964,2913,2928,3041,3022,2984,2960,3027,2927,2974,2927,3031,2928,2960,2929,2944,3009,2987,2923,3023,2988,2914,3025,2985,3070,3018,2992,2960,2960,2910,3031,0
2977,2916,2991,2963,3018,2901,2999,2928,2960,2910,3019,2939,2961,3014,2933,2958,3007,3010,2977,2986,2944,2920,3007,2990,3041,2921,2985,2950,2949,2999,3003,2908,2993,2928,2991,2931,2972,2960,2975,2949,3002,2969,2992,3014,3005,3013,2917,3003,2919,2953,2947,2937,3007,2975,2979,2960,3005,2946,3019,2971,3021,3003,2938,3008,2990,2928,2970,2961,2932,3060,2994,2949,2975,3031,3008,2966,2934,3003,2952,2995,2916,2992,2935,3038,2905,2986,3024,3022,3044,2943,2977,2979,2960,3008,2982,2992,2976,2997,2976,0
2926,3003,2999,2997,2997,2932,2992,2916,2979,2994,3023,2936,2957,3003,3041,2928,3005,2965,3009,2922,3003,2925,2983,2906,3031,3021,2917,2990,2951,3025,2924,3019,2968,2897,2973,2965,3024,2923,3015,2920,2959,2993,2925,3025,2953,2992,3024,2997,2946,2938,2999,3051,2917,2991,2988,2941,2939,3011,2915,3031,2927,3007,2920,3045,2939,3034,2917,2914,3011,2960,2999,2940,3018,3025,3055,3003,2986,2999,2946,2995,2917,2970,2944,3031,2953,3009,2961,2979,2931,2976,2999,3024,2935,2992,2968,3019,2999,2997,2900,0
3015,2955,3011,2960,2930,3013,2977,3056,3015,3018,2930,2980,2925,2926,2929,3021,3041,2912,2985,2956,2933,2981,2946,2975,2951,3047,3042,2942,2960,2950,3014,2926,2964,2967,2999,2969,3007,2990,2971,2924,2947,2959,2989,2963,2958,2951,2970,2982,3009,2967,2961,2944,3003,2913,3035,2907,3027,2909,2987,2929,2960,2939,2976,3024,2925,3007,2896,2992,3019,2999,2946,3024,2921,2925,3024,2919,2996,2971,2942,2992,2928,2997,2952,2985,3019,2928,2919,2991,3008,2960,3010,2960,2960,2993,3002,2995,2913,3019,2928,0
3003,2952,2967,2974,2999,2976,2966,2977,2959,3035,2960,3035,2934,3003,2960,3025,2960,3009,2963,2961,2928,2990,2910,3020,2933,3023,2970,2944,2977,2972,2928,3009,2915,3039,3051,2986,2928,2928,3054,2922,2955,3035,2950,3008,2975,3045,2944,3042,2938,2924,2998,3021,2965,3009,2933,3019,3015,3043,3027,2952,3015,2944,2993,2991,3039,3042,2992,2949,2979,2992,3015,2995,2987,2979,2938,2971,2946,2927,3012,3011,2930,3015,3024,2981,2940,3019,2940,2967,2914,2967,3000,2981,2998,2979,3007,2910,3027,2923,2954,0
2992,2922,3042,2912,3015,2958,2971,3007,2973,2985,3019,2979,3006,2910,3011,2911,3024,2920,3041,2948,2937,3056,3009,3022,3029,2986,2960,2998,2933,2976,2928,2928,3039,2898,3019,2986,2963,3040,2943,3010,2986,2922,2956,2918,3023,2992,2901,3007,3061,2994,2955,2897,2944,3015,2908,3007,2962,3015,2901,2993,2923,2926,3047,2949,2993,2917,3041,2942,2921,3002,2921,3010,3027,2983,2994,3039,2991,2931,2997,3041,2948,3039,2924,2996,2901,3024,3005,2924,2965,2984,2922,2950,2932,3035,2940,2960,3022,2941,2974,0
3019,2965,2877,3008,2911,2978,3024,2900,2934,2928,2990,2906,3011,2984,3014,2960,2926,3024,3041,2945,3009,2937,3046,2933,2965,3005,2955,3008,3040,2948,3003,2965,3024,2949,3026,2983,2982,2937,3014,3027,2912,3015,2928,3010,3023,2992,2944,2976,2947,3026,2959,3011,2960,2960,3023,2933,3043,2994,3015,2911,3027,2926,2942,2966,2945,2973,3007,2898,2942,3005,2921,3043,2979,2960,2959,2942,3013,2970,3020,2928,3009,3018,2957,2998,2949,2975,2916,2943,3002,3007,2992,2911,2986,2963,2951,2968,3007,2982,3007,0
2918,3006,2928,3035,2951,2954,2996,2983,2917,2904,2992,2955,2992,2939,2967,3008,2889,2888,3024,2925,3027,2909,3029,2960,2943,3013,3015,2958,2993,2976,3026,2965,2898,3027,2935,2999,2991,2928,2955,2982,3015,3019,2946,3015,2943,2975,3008,2943,2939,2981,2930,2991,2972,3024,3024,2928,3024,2938,3027,2958,2971,2943,2950,2979,2941,3024,2941,2990,2929,2979,2960,2992,2960,3011,2960,2921,3003,3003,2921,3043,2960,3015,2937,3019,2966,3010,3018,2949,2945,3043,2962,2993,2924,2933,3006,3055,3025,2952,2927,0
2958,2953,2942,2931,2999,2990,2923,2911,3004,2934,3031,2943,2986,3015,3022,2949,3034,3002,3027,2921,3027,3025,3043,2937,3020,2921,2922,3021,3027,2980,3014,2992,2942,3024,2992,3006,2977,2972,2938,3011,3023,2960,2948,2967,2909,3067,2982,2988,2945,2981,2944,2960,2948,2972,2972,2960,2932,3001,2991,2963,2916,2991,2916,2913,3007,3031,2987,2953,3003,2934,2932,3008,2942,2991,2967,3003,2967,2992,3003,2977,2960,2928,2967,3006,2940,3011,3002,2943,3022,3045,2913,3035,2929,2970,2993,2998,3011,2933,3047,0
2937,2958,3010,2966,2997,2946,2921,3005,2992,2931,3014,2912,3023,2897,2971,2930,3031,2992,2924,3013,2928,3009,2930,2975,2949,2958,3003,2995,2980,2908,3043,2963,3023,2991,3002,3063,2930,3014,2929,2966,2977,2975,2983,3026,2937,2983,2917,3014,2906,3037,3023,2910,3024,2943,2976,2965,2925,2979,2999,2928,3009,3030,2992,3030,3023,2928,2961,2954,2915,2991,2934,2951,2943,3011,2916,3031,2913,3025,2998,3027,2990,2995,2970,3007,2916,2944,2963,2921,2953,3004,2929,2935,2954,2928,3011,2988,2928,2960,3029,0
2969,2960,2987,2941,2992,2944,3019,3022,2931,2991,2935,2964,2941,3009,2931,2920,3011,3010,2945,3023,2970,2967,2993,2928,2992,2992,2980,2949,2956,3003,3023,2951,2927,2963,2971,2958,2966,2991,2939,2901,3011,2923,3010,3056,2920,2960,3039,2915,2983,2983,3024,2927,2928,2957,2998,2955,2982,2999,2969,2941,2962,2999,2931,3008,2960,2936,3009,2994,2931,3015,2978,2939,2904,2944,2917,2943,2915,2989,2974,2997,3027,2987,2951,3025,2932,3027,2947,2923,2971,2992,2972,3013,2932,2993,2987,2992,2954,2995,2934,0
3001,2954,2966,2945,2987,2922,3023,2933,3006,2917,2972,2951,2913,2977,2959,2992,3008,2941,2918,3019,2954,2992,2921,3022,2913,2944,2923,3033,2911,3024,2912,2960,3014,3008,2934,3001,2942,2938,2934,2960,2958,2961,2943,2997,2928,2937,3015,2972,2986,2987,3008,2922,2959,2977,2954,2936,2970,2941,2992,2928,2949,3015,2933,3013,2959,2927,2998,2923,3009,2960,2999,3004,2970,2995,2940,3022,2973,3034,2932,2999,3010,2992,2927,2959,2959,3013,2925,2954,2941,2940,2943,2991,2947,3024,2928,2981,2983,2945,3015,0
2969,2971,3007,2966,2928,2926,2925,2982,2905,3004,2999,2971,3007,2981,2987,2928,3003,2944,2965,2944,2932,2983,2922,2947,2991,3011,2933,2908,3029,2933,3023,2943,2998,2912,2947,3027,2911,2998,3003,3014,3024,2904,2986,3024,2913,2929,2945,2996,2928,3006,2957,3037,2921,2995,3023,2980,2960,2991,2931,2983,2902,2893,3013,3027,2940,2953,2987,2936,3011,3008,2950,2924,3006,2926,3024,3007,2922,3008,2975,2938,2993,3008,3041,3011,2928,2921,2972,2915,2999,3017,3040,2978,2960,2956,2993,2960,3022,2963,2929,0
3047,2921,2998,2930,3010,2951,2939,2991,2980,3011,2924,2999,2969,3024,2976,2943,2942,3015,2917,3024,2929,2965,3027,2939,2967,3041,2992,2975,2991,2928,3006,2991,3020,2923,2979,2979,3024,2962,2965,2960,2999,2973,2928,3011,2976,2924,2975,2992,2977,3027,2963,2995,3022,2969,2964,2926,3051,2897,3022,2979,2992,2971,3023,3043,2990,2963,2953,2921,2951,3057,2928,2987,2961,3026,2928,3008,2924,2926,2991,2993,3010,2974,2922,2971,2960,2992,3013,3004,2960,2974,2965,2986,2951,3024,3039,2914,2992,2991,3023,0
3031,2925,3024,2908,3011,3024,3030,2997,2959,2960,3008,3047,2952,2997,2972,3026,2991,2956,2925,2993,2958,2975,3023,3025,2917,2963,2993,2955,2952,2992,2995,2995,2948,3041,2938,3014,2970,2928,3006,2915,2991,2992,2992,2942,3001,2974,2958,2924,3024,2924,2944,2992,2915,3011,2934,2978,3026,3024,2941,3009,2934,3024,2961,3043,2925,2995,2962,2930,3005,3017,2988,2953,2992,2992,2985,2935,3045,2963,2924,2916,2995,2988,2935,2947,3023,2928,2957,2962,2928,3019,2910,3015,2967,2962,2948,2943,2951,2965,2939,0
2910,2987,2983,2961,2978,2928,3019,2953,3007,3019,3014,3030,2949,3005,2975,2896,2970,2943,3025,2942,3008,2943,3030,2961,2928,2991,2956,2942,3011,2912,2959,2999,2959,3003,2991,3007,3039,2939,2941,2973,2934,2950,2960,2953,3025,2995,2936,3031,2978,3022,2908,2942,3003,2940,3025,2968,3021,2962,2967,2944,3015,2977,2908,2931,3039,2957,3013,2912,3023,2942,2992,3041,2941,3055,2951,2924,3027,2948,3019,3020,2960,2918,3049,2929,3051,2945,3009,2983,2934,2944,2905,3001,2957,2994,2937,3039,2980,3040,2917,0
3027,2909,2967,2987,2926,2990,2993,2996,2938,2950,3026,2928,3038,2969,3026,2990,3031,2925,2964,3015,2986,3011,2896,2983,2963,2968,3013,2907,2975,2997,3001,3009,3008,3019,2921,2921,3024,2929,2898,3046,2991,3030,2941,2961,2986,3047,2909,3024,2949,2951,2949,2972,3009,3027,3011,3023,3003,2991,2928,2924,2960,2964,2905,2946,2985,2980,2904,2917,2965,2916,3054,2987,2981,2966,2922,3007,2986,2935,2975,2974,2913,2970,2975,2941,2947,2955,2973,2948,3002,2992,2982,3023,2924,3057,3042,2958,2991,3035,2928,0
3024,2998,2997,2959,2960,2931,3047,2930,3019,2937,2989,2991,2952,2927,2938,3025,2934,3031,2936,2999,2916,2991,2945,2947,2970,2922,3022,2944,3024,2925,3024,2975,3015,2955,2928,3025,2991,3007,2899,3008,2940,2979,3021,2940,3011,2946,3071,3031,2909,2936,3027,2959,3024,2960,3009,2922,3023,2975,3038,2919,2984,2970,2920,2960,2992,3008,2917,3019,2982,2925,2986,2992,3013,2965,2976,2986,3088,2981,2985,2959,2993,2989,2992,2927,2923,2951,3007,2905,2928,2980,2995,2959,2991,2978,3025,2958,2954,3031,3031,0
3011,2926,2951,2987,2980,2989,2971,3014,2965,2940,2971,3006,2989,2991,2917,2960,2969,2941,3046,2964,2978,2955,2970,3003,2932,2963,2920,2955,3002,3009,2974,2974,2979,3038,2940,3034,2909,2975,3025,2953,2992,3040,2928,3024,2940,3021,2925,3035,2929,2956,2961,2988,2946,3023,2909,2992,2953,3035,2939,2997,2941,3021,2964,2991,2925,3030,3012,2937,2970,2990,2968,2928,2971,3025,2940,2920,3022,2933,3011,3024,2955,2983,3013,3028,2942,3014,2976,2991,2947,2998,2917,2961,2985,2956,2971,2991,2955,3036,2926,0
2936,3043,2923,2939,2919,3023,2924,3008,2987,2982,2975,2992,2971,2900,3013,2948,3041,2933,3015,2910,2939,3008,2913,3025,2972,3024,3007,2947,2929,3014,2954,2928,2940,2964,3014,2941,2969,3005,2929,2960,2971,2923,3010,2945,3035,2925,3029,2964,3009,2928,3019,3007,3018,2923,3007,3041,2916,2922,3041,2933,3039,2933,2959,3063,2973,2944,3040,2946,2992,2941,3022,2932,2950,2942,2961,3047,2913,2991,2947,3035,2942,2959,2970,2966,2963,3024,2975,3019,3024,2977,3021,2905,3031,2936,2938,3035,2979,2959,2965,0
2907,3031,2954,3027,2930,2928,2959,3003,2991,2992,3024,2921,3023,2999,2960,2970,2949,2952,2944,3031,2937,3035,3011,2928,3019,2968,2967,2941,3005,3039,2913,2923,2949,2975,2980,2985,3007,2974,2992,3002,2944,3047,2987,3015,2935,2948,2963,2913,3007,2997,2993,3015,2993,3054,2924,2941,3016,2928,2937,2925,2995,2925,2999,2944,2955,2992,3014,2941,3025,2911,2998,2981,2983,2937,3018,2997,2960,3010,2962,2923,3047,2966,2911,2949,2974,2944,3014,2912,3015,2907,3034,2935,3020,2936,3019,2950,3047,2940,3008,0
2914,3026,3019,2949,3035,2950,2961,2933,3008,2992,2956,2934,2949,3037,2920,2951,2972,3024,3018,3019,2925,2960,3009,3027,2909,2960,3008,2952,3021,2944,3008,2987,2938,2997,2960,2991,2941,2960,2963,2942,2935,2949,3055,2936,2943,3015,2939,3015,2999,2997,2946,2992,2979,2942,2928,3021,2928,2921,2982,2911,2988,2995,2999,3015,2963,2943,2912,3009,2910,3035,3002,2923,3040,3022,2937,2927,2933,2992,2960,2918,2987,2995,3038,2993,2972,2947,3019,2966,3006,2979,3027,2943,2995,2982,2966,3035,2949,3018,2912,0
3045,2976,2982,3010,2959,3024,2943,3015,2934,3046,2901,2957,2974,2916,2980,2987,2946,2997,3034,2945,2993,2925,2913,2962,2979,2976,2971,2995,2958,2977,3031,2999,2960,2985,3031,2976,2934,2907,2998,2937,3040,2929,2959,3025,3008,2997,2926,2983,2914,2999,2918,2957,2992,2907,2989,2956,3023,2976,3035,2992,2964,2995,2959,3025,2920,3025,2922,3011,2993,2979,3025,2943,2961,2969,2983,2930,2994,2953,3030,2900,3031,2928,2920,3027,2906,2970,2960,3019,2946,3019,2896,2886,2993,3015,2937,3007,2928,3023,2928,0
3035,2943,3031,2932,2922,3043,2952,2993,2940,2909,3023,2977,3008,2991,2960,2897,2999,3031,3012,2992,2931,2993,2998,2978,2931,2987,2957,3010,2956,3037,2960,2975,3026,3003,2921,2928,3003,2992,2921,3009,2999,2941,2921,3023,2932,2915,3015,2937,2977,3031,3042,2906,2989,2895,2932,3005,2999,3018,3014,2910,3056,3026,2956,2920,3007,2956,2989,2870,2980,2899,2914,3031,2953,3008,2957,2969,2945,3030,2935,3004,2963,2964,2996,2978,2928,2970,2916,3020,2928,3027,2922,2975,2992,3001,2993,2960,2953,2943,2904,0
2993,2961,2912,3041,2994,3024,2924,2953,2940,2945,2947,2979,2948,2987,2980,3019,2910,2955,2975,2987,2928,3031,3015,2928,3007,2925,2975,2992,3023,2925,3024,2963,2969,3008,2993,3043,2961,3007,2992,2998,2908,2997,3011,2943,2970,2965,2960,2929,2993,2960,2944,2996,2899,3000,3013,3021,2950,3030,2943,2960,2937,2971,2928,2950,3009,2971,2975,2928,2994,2928,3014,2991,2919,2975,2953,3025,2922,3046,2976,2961,2928,2995,2944,3027,3021,2969,3024,2913,2985,2928,2965,2957,2960,3035,3034,3009,3011,2982,3015,0
2981,2998,2943,2975,2898,2960,2928,3013,3008,3011,2970,3009,2999,2910,2928,3047,2920,3015,2960,3009,2976,2998,2983,2965,2977,3019,2971,2915,3005,2914,3008,3018,2908,2983,3007,2932,3011,2925,2981,2995,2982,2896,3044,3007,2922,2960,2975,2995,2979,3006,3001,2951,3021,2906,3027,2928,2972,2928,2992,2928,2928,2987,2996,2991,3022,3008,2913,3015,2971,3038,2967,3035,2925,3018,2928,2964,2932,2963,2929,2948,3047,2995,2964,3047,2947,2928,2913,2979,2999,2958,2954,3024,2943,2951,2946,3007,2931,2977,2941,0
3030,2915,2992,3025,2928,3028,2921,2959,2939,2992,2992,2980,3031,2956,2918,3011,2916,2992,3003,3024,2928,2999,2964,2947,3070,2948,3008,2934,3021,2972,2942,2959,2926,2964,3006,3021,2974,2999,3002,2924,3030,2997,2948,3039,2999,2911,3013,3013,2960,2935,2928,2988,2899,3056,2950,2959,2992,2925,3087,3036,2937,3019,2972,2935,2975,2936,2951,2958,2933,2992,2960,3031,2982,3035,2960,2924,3039,2946,2943,3020,2912,3011,3027,2925,3009,2964,2949,2996,2997,2924,3007,2897,2933,2900,2925,3007,2909,2993,2950,0
3012,2983,2996,2950,2967,2986,2959,2978,3035,2914,2912,3019,3026,2928,3015,2965,2902,2964,2995,2974,3041,2962,3019,2958,2993,2953,2973,2917,3024,2912,3038,3037,2922,2966,3015,2992,2943,3003,2908,3019,2932,2975,2922,2999,2965,2989,3011,2981,2976,2932,3020,2919,2939,3019,2981,2929,2955,2990,3015,2933,2977,3011,3003,3008,2948,3029,2926,3003,2944,2989,3010,3009,2940,3023,2995,3027,2961,2963,2955,2960,2989,2960,3009,3038,2937,2992,2965,2955,2930,3078,3009,3004,2955,2991,2979,2960,3023,2941,2936,0
2981,3009,3035,3023,2939,2959,2967,3021,2920,2972,2916,2960,2963,2936,2992,2966,3024,2987,2952,2922,2960,2917,3058,2944,2928,3023,3022,2945,2971,2952,2967,2998,2941,3020,2931,2975,2940,3008,2933,2959,2928,2934,3024,2995,3009,2925,3009,2913,2966,2984,2916,3027,3008,3003,3011,2952,3019,2928,3013,3004,2960,3029,2922,2951,2904,2983,2933,3023,2994,2985,3011,2944,2977,2994,2995,3006,2983,2975,2911,2960,3043,2930,3021,2991,2977,3013,2977,2970,2939,2993,3006,3002,2984,2915,3056,2928,2955,3054,2937,0
2986,3042,2933,2992,2978,2971,2965,3026,2944,2993,2956,3009,2965,2975,2928,3013,2990,2986,3008,2991,2928,3021,3043,2928,3015,3000,2918,3040,3027,2986,2929,2979,3041,2995,2992,2979,2979,2991,2948,2953,2917,2931,3011,3026,2917,2971,2961,3003,2922,2960,2992,2956,2958,2995,2913,3041,2900,3006,3003,2970,3024,3027,2937,3030,2937,3005,2948,3022,3001,2994,2997,3005,2975,2928,2986,2935,3041,2981,3038,2967,2974,2983,2993,2939,3031,2928,3012,2975,2967,2999,2930,3019,2922,2960,3013,3041,2993,2953,3013,0
2943,3057,3002,2940,2954,3010,2956,3011,2968,2997,3010,2960,2929,3031,2917,2946,2937,2998,2983,2954,3026,2933,3039,2938,3015,2981,2934,3015,2960,2939,2923,3009,2975,3039,2979,2998,3003,3008,3023,2955,2982,2956,2948,3015,3002,3025,2928,2943,3025,2928,2983,2922,3054,3006,2915,3035,2987,2924,2990,2967,2974,2976,2991,2937,3042,2914,2923,2979,3005,2982,2989,2967,2971,2963,3008,3019,2957,2948,3015,2937,2914,2999,2977,3037,2945,3023,2997,3010,2930,3011,2960,2960,2934,2963,3036,2995,2939,3054,2907,0
3051,3034,2956,3003,2953,3003,3004,3036,2967,3002,2973,2932,2915,2922,3021,2969,3025,3019,2978,3026,2942,2942,3031,2923,3035,2959,2960,3011,2936,3023,2936,2928,2931,2974,2966,3024,2940,2991,2920,2957,2926,2995,3012,2999,2985,2975,2958,3043,2990,2953,3018,2941,3019,2942,2909,3010,2901,3035,2928,3057,2956,2960,2928,3014,2944,3007,2943,2981,2922,2974,2943,2987,2992,2999,3028,3004,3035,2909,2991,2964,3015,2991,2927,2956,3014,2908,3010,2928,3037,3014,2987,3031,3015,2981,2987,3015,2961,2992,2928,0
2938,2929,3023,2928,3024,2996,3011,2911,3025,2949,3027,2917,3035,2942,3024,2920,3013,2925,2997,2999,2994,2963,2947,3008,2944,2998,2979,2900,2929,3023,2909,3023,2938,3029,2950,2918,3047,2949,3035,2979,2992,3021,2914,2959,2994,2959,2997,3026,2924,2967,2923,3010,2931,2988,2979,2947,2998,2924,3002,2949,2922,2943,3045,3043,2928,2979,3019,2993,3043,2928,3023,2933,2972,2953,2960,2942,2973,2915,3027,3047,3014,3001,2978,3000,3009,2997,2987,3001,2957,2991,3011,2990,2947,3024,2919,2995,2948,3018,2999,0
2985,3030,2908,3019,2956,2937,2963,3034,2918,2963,2955,2955,2913,3027,2915,3026,2921,2998,3025,2976,2992,2943,2956,2928,3026,2914,2999,2994,2929,3015,2969,2974,2922,2914,2918,2993,3031,2957,3030,2960,2963,3011,2920,3018,2965,2991,3008,2946,3011,3013,2997,2975,2939,2935,2976,2983,2944,2947,2911,2979,2999,2921,2926,3018,3035,2910,3042,2996,3026,2978,2960,2913,2907,2959,2986,2960,3027,2999,2951,2904,3029,2909,2987,2945,2998,2977,2975,2921,3031,2955,3006,3035,2940,2998,2960,3009,3003,2951,2990,0
2925,3008,3008,2922,2967,2928,3018,3008,2951,2982,2935,3018,2921,3042,2896,2921,2937,3006,2928,2981,2910,3009,2975,3019,2901,2990,2963,2997,2926,3010,2991,2978,2955,2928,2955,3012,3011,2916,2995,3024,2942,2960,2954,3037,2973,2935,2944,2982,2914,2939,3035,2943,3013,2950,2972,2928,3022,2966,2905,3015,2949,2955,3031,2956,3002,2928,2963,2983,2914,3015,2963,3023,3011,2928,2981,2996,2991,3008,2992,3036,2934,3036,2961,3011,2995,2960,2924,2986,2921,3066,2960,2956,2928,3047,2952,2987,2944,3059,2916,0
2940,2955,2920,2991,3007,2977,3024,2989,2954,3007,3023,2972,3025,2979,2978,2955,3020,2974,2964,2917,3006,2972,2967,3023,2932,3015,2959,2918,2954,2999,2937,3024,2954,3015,2958,2992,2906,2962,2998,2927,2999,2924,2961,3014,2987,3010,2917,2967,2917,3059,2928,3030,2992,2912,3007,2977,2985,2935,2946,2992,2927,2986,2934,2917,3009,2909,3047,3023,2941,2992,2928,2948,2928,2979,2962,2997,3002,2911,3007,2956,3001,2954,2960,2944,2993,2993,2994,2981,2923,3005,2920,3035,2953,3008,2945,2995,3027,2935,3022,0
2951,2933,2929,2955,3042,2914,3025,2928,3034,2931,2964,3059,2963,2999,2964,2943,2937,3038,2943,2987,2942,2965,2932,2959,2992,2976,3040,2922,3055,2953,2932,3018,3024,2933,3004,2929,3011,2948,3019,2957,3039,2937,2958,3008,2966,2924,3023,2939,2948,2911,3024,2978,3003,2999,2946,2990,2947,2990,3040,2922,3030,2957,2979,2960,3002,2957,2934,3019,2943,3028,2928,2922,3018,2928,3003,2923,2963,2926,2941,2964,3018,2946,3041,2977,2947,2976,2938,2949,3017,3024,2928,2999,2974,3001,2934,2967,3024,2928,2998,0
2930,3003,2928,2913,2991,3025,2948,2958,2967,2940,2983,2959,3009,2946,3024,2936,2952,2967,2961,2935,2992,3046,2928,3041,2960,3008,2953,3026,2968,2997,2951,2960,3050,3023,2972,2995,2981,2999,2939,3008,3013,3040,2959,3003,2918,2992,2948,2983,2999,2973,3015,2916,2935,2962,2896,2998,2912,3050,2961,3013,2969,2945,2976,2967,3007,2944,3031,2977,2948,2922,3024,2910,2934,3017,2932,2946,3013,2983,3006,2928,2976,3023,2987,2972,2958,2995,3003,2892,3025,2942,2915,2951,2963,2936,3009,3024,2924,2995,2925,0
2981,3031,2905,2978,2942,2993,2961,2940,3021,2983,2916,2944,2917,3009,2920,2995,2929,3040,2971,3021,3008,2930,3039,2916,3024,2951,2955,3019,2957,3009,3047,2920,3014,2923,3071,3047,2923,2939,2991,3030,2957,2949,2962,2993,2959,2998,2938,3015,2928,3009,2921,2994,2933,3011,3009,2972,3027,2912,2992,2955,3026,2923,2961,2971,2944,2960,2934,2999,2954,2974,2959,3011,2922,3051,3005,2913,3024,2917,3031,2933,3027,2928,2974,2975,3020,2909,3030,2969,3030,3063,3026,2960,3011,2917,3024,2906,3039,2934,3008,0
2995,3025,2936,2942,2956,2974,2973,2937,2977,2962,2999,2911,2995,2954,3025,2994,3005,3019,2956,3039,2961,3045,2979,3014,2943,3030,3041,2940,3018,2932,3024,3023,2961,2993,2943,3003,2929,3019,2914,3034,2931,2928,3031,3030,2939,2959,2926,2950,2987,3006,2939,3002,3009,2916,2928,2875,3045,3000,2960,2938,2987,2962,3007,2992,2916,3021,2992,2932,3024,2983,3008,2905,3027,2896,2975,2910,3024,2908,3056,2899,2965,2941,2967,2990,2996,2941,3008,3015,2949,2991,2930,2939,3012,3003,3023,2928,2928,2960,2944,0
2947,2957,2992,2928,2969,2964,2972,2973,2983,2919,3039,2956,3019,3008,2943,2922,3039,2928,2989,2928,2971,2978,3024,3031,2992,2940,3057,2916,2956,2992,2931,2956,2931,3035,2960,2965,2957,2979,3019,3026,2913,3013,2949,3019,2930,2992,2929,3039,2922,2974,3037,2941,2924,2975,2960,2986,2977,3023,2970,3030,2997,2931,2993,2961,2978,2954,2964,2999,3011,2917,3051,2928,2986,2911,2979,2923,3007,3020,2975,2920,2997,2977,2950,3015,2949,2929,3031,2941,3031,2982,2928,2979,3011,2910,2991,2933,2991,2923,2991,0
2974,2964,2989,2923,2990,2989,3026,2948,2935,3023,2931,3024,2952,3023,2932,2958,3047,3019,3029,2943,3078,2931,2928,3024,2910,3039,2950,2952,3024,2930,3010,2960,2949,2992,2913,2982,2961,3014,3006,2945,2960,2994,2936,2974,2920,2960,2919,2974,2955,2972,3003,2924,2963,2982,2943,3023,2987,2928,3035,2933,3041,2949,3040,2943,2979,2963,3008,3017,2954,3027,2961,3015,2931,2938,2992,2965,2995,2949,2953,2975,3002,2915,2943,2998,2957,3027,2953,2965,3009,2991,3025,2941,3009,2939,2941,3043,3015,2960,3023,0
2988,2910,2983,2917,3023,2906,2978,2939,2960,2944,2991,2992,2957,3014,2916,3019,2937,3024,2943,3007,2971,2975,2912,3006,2905,3015,2900,2966,2983,2941,2981,2986,3039,2921,3014,2962,2928,2983,3003,2928,2998,2911,3019,2957,2961,2993,2992,3031,2948,2999,2933,3021,2927,2920,2991,2945,3011,2919,2971,2936,2967,3027,2986,2926,2928,3008,2936,2912,3008,2943,2995,2977,2959,2975,3019,2981,3041,2948,2961,2917,3011,2988,2975,2977,2949,2998,2956,3024,2928,2996,2981,3031,2916,2999,2896,2954,3015,2992,3023,0
2928,3003,2929,2929,3013,2980,2975,2965,2978,2916,3011,2947,2899,3007,2910,3026,2912,2997,2941,2986,3019,2933,3024,2905,2995,2913,3024,2987,2998,3001,2948,2999,2917,2960,2938,2906,2999,2973,3040,2918,2993,2930,2919,2921,3008,2947,3022,2987,2976,2973,2998,2993,2992,2992,2962,2981,3015,2940,3007,2918,2983,2934,3025,2928,2966,2995,2913,3026,2928,2922,3012,2928,3009,2920,3011,2946,2916,2995,2972,3018,2933,3023,2920,2993,2975,2927,2995,2954,3003,2942,3022,2983,3049,2998,2908,3022,3008,2983,2921,0
2944,2978,2940,3042,2937,2991,2933,2943,2929,3022,2943,2933,3026,2942,3008,2964,3047,2922,2975,2944,2906,2928,3023,3008,2912,2991,2983,2960,2998,3005,2975,2986,2917,3009,3019,2946,3007,2953,2936,3003,3013,2979,2960,2965,2930,2975,2993,2893,2990,2982,3024,3003,2989,2992,2960,3008,2946,2982,2928,2992,2928,3019,2914,2916,2994,2921,3026,2926,2951,2968,3019,2986,2981,3011,2964,2992,2999,2988,2985,2945,2943,2954,3035,2928,2992,2986,3026,3015,2974,2949,3045,2925,2973,2999,3027,2920,2998,2941,2983,0
2954,2896,2951,2994,2963,2944,3007,2960,3017,2974,3030,3015,2992,2928,3002,2944,3019,3021,2896,2958,3008,2993,2998,2986,2978,2945,2943,2965,2989,2935,2987,2939,2950,2954,2954,2965,2948,2926,2992,2928,2992,2997,2911,3025,2940,2999,2955,3007,2967,3006,2956,2943,3020,2991,2961,3049,2960,2986,2992,2992,2926,2995,2928,3025,2908,3008,2954,2948,3029,2949,3027,2946,2933,2957,2905,3039,2960,3067,2972,2913,2917,2902,2960,2972,2982,2950,3024,2923,3015,2972,2966,2912,2995,2898,3019,2968,3027,2948,2939,0
3014,2938,2997,2957,2932,2920,2948,2978,2940,2999,3008,2920,3011,2990,2938,2966,2997,3021,2928,2957,3011,2981,3018,2979,2939,2914,3035,2982,2963,3006,2949,3005,2922,2949,2960,2943,3026,2948,3027,2948,2979,2980,2966,3042,3005,2928,3062,2939,2978,2918,3007,2928,3013,2959,2995,2954,3010,2960,2974,3019,2936,2909,2983,2932,2966,2928,2947,2941,2916,3025,2986,2995,3018,2971,2914,2992,2939,2971,3006,2917,3031,2977,2933,2929,2990,2937,3045,3031,3004,2928,3034,2992,2978,2940,2942,3037,2958,3019,2958,0
3031,2919,2922,2966,3003,2995,2983,2913,3014,3019,2901,2943,2959,2926,2975,3029,2933,2916,3024,2956,2995,2968,2963,3011,2999,2972,2973,2955,2982,2959,3015,2982,3019,3023,2964,2974,2991,2933,2975,2978,2959,2980,3043,3035,2991,3014,3003,2960,2997,2900,3026,2951,2916,2929,3019,2951,2928,3055,2943,2966,3009,2960,3037,2931,3011,2959,2913,3011,2917,2930,3031,2958,3013,2985,2971,2981,2928,3035,2921,3038,2960,2970,2883,2928,3008,2983,2992,2937,3026,2945,2914,3027,2948,2928,2998,3008,2967,2943,3010,0
2960,2982,2955,3008,2933,2987,2977,2999,2928,2900,3006,2908,2995,2912,3023,2935,2935,2956,2992,2943,2962,2971,2997,2944,2995,2983,2963,2995,3015,2997,2998,2960,3031,3035,2904,3002,2921,2929,2935,3007,2939,3019,3015,2979,2949,2933,2927,2953,3002,2972,3015,2928,3003,2951,2945,2929,2910,2992,2983,2937,2991,2976,2982,2960,2924,2960,3011,2940,2993,2954,2992,3008,2999,3003,2918,2906,2975,2930,3010,2925,2991,2928,2977,3035,2979,3015,2953,2960,2970,2939,2980,2995,2928,3012,2929,2992,2944,2941,2992,0
3024,2924,3003,2910,2982,3019,3019,2951,2970,3043,2911,2979,2973,2924,3025,2910,3039,2958,3008,3021,2989,2936,2928,2923,3020,2987,2985,2967,2987,2977,2986,2986,2913,3018,2954,3024,2994,2914,2999,2972,2913,3023,2928,3013,2975,3005,2966,2944,2987,3023,2992,2958,2939,2992,2948,3038,2993,2914,3041,2959,2900,2948,2939,2938,2993,3015,2913,3007,2928,2991,2907,2983,2973,2992,2916,3019,2977,3042,2952,2990,2981,2959,2900,3040,2967,2950,2914,3008,3014,2915,3027,2916,2917,2974,2928,2994,2939,3005,2950,0
2960,2917,2982,2934,2954,3059,3024,2931,3041,2949,2990,3010,2944,3027,3027,2926,3008,2986,2927,3015,2929,2971,3005,2922,2974,3003,3003,2912,2991,3009,2986,2989,2959,3027,3010,3019,2932,3031,2939,3037,2929,3010,2976,2995,3001,3008,3022,2955,3013,2924,2992,2930,3027,2931,2960,2926,2991,3008,2962,2959,3005,2942,3004,2896,2942,3030,2924,2991,2937,2987,2965,2974,2926,2998,2972,2928,3006,2925,2993,2997,2908,2962,2943,2999,3023,2960,3007,2928,3022,2913,2960,2928,3026,2990,2935,2956,2930,3005,2988,0
2908,3015,2987,2929,2977,2911,2925,2940,3011,3014,3008,3034,2971,2992,2972,2920,2908,2996,2974,3003,2971,2920,2999,2925,2965,2999,3003,2958,2949,2988,2987,3024,2949,3019,2937,2991,2932,3009,2992,3035,2931,3006,2928,3055,2994,2933,2986,2927,3012,2997,2960,3033,2991,2958,2990,2928,2990,2923,3046,2979,2954,2979,2960,2928,2955,3063,3056,2960,3031,2911,2946,2921,2951,2977,2928,2927,2904,3031,2983,2961,2944,2934,2973,2967,3015,2960,2963,3008,2943,3028,2963,2980,2914,2904,2992,2961,2933,2981,2928,0
3015,2998,3024,2918,3035,2963,3046,2911,2999,2943,2983,3036,2932,3002,2945,3001,2957,2917,2992,3019,2992,2928,2959,2905,2927,2944,2957,2940,2985,2993,2945,2997,2991,2993,2952,3014,2958,3056,2911,3045,2932,3051,3008,2951,2912,2923,3070,2925,2947,2987,2992,2975,3019,2970,2928,2991,2979,2990,2944,2972,2964,3011,3042,2934,3024,2905,2996,2931,2967,2958,3009,2938,3051,2957,3027,2953,2945,3046,2974,3011,3050,2928,2992,3035,3008,2975,3009,2978,2980,3008,2975,3019,2947,3019,2928,2959,3008,3019,2991,0
2975,2992,3011,2930,2935,2963,2929,2995,2973,2930,2999,2999,2988,2937,3057,2966,3010,2927,3027,2913,2993,2926,3024,2999,2966,2957,2965,2971,2996,2924,3031,2931,3050,2924,2983,2960,2950,2999,2958,3069,2955,2962,2925,3007,2933,2966,2986,2994,3006,2994,2987,2911,3011,2971,2928,3024,2934,3024,2934,2976,3023,2965,2941,3035,2938,2994,2941,2977,2987,2932,2983,2914,2992,2930,2990,2939,2958,3003,3015,3059,2931,2957,3025,2920,3014,2958,2999,2972,3008,2928,2914,3023,2946,2971,2991,2975,2958,2921,2999,0
2911,2976,3001,3041,3014,2957,2969,2941,3003,2974,2978,2959,3027,2938,3015,2916,3018,2925,2915,2958,2957,2992,2939,3027,2938,3023,2944,3009,2914,2991,2913,2946,3007,3001,2974,2987,3031,2951,2980,3004,3043,2906,3011,2945,2990,2934,3005,3022,2937,3024,2921,2998,2928,2983,2945,3027,2917,3003,2971,2999,2997,3029,2926,3038,2928,2979,2980,2925,2925,2977,2999,2974,2915,2970,3031,3031,2935,2953,3019,2975,2950,2907,3038,2980,2987,2943,3024,2911,3008,2935,2963,3024,2983,3003,2917,3003,2988,2946,3012,0
2921,3013,2938,2992,2910,2955,3039,3046,2939,3037,2943,3007,3024,2928,3019,2933,3003,3005,3019,3023,2944,3003,2999,2992,2911,2995,2922,3015,2928,2944,3007,2997,2932,3024,3031,2928,2993,2998,2983,2926,2982,2993,2895,3067,2945,2986,2947,3047,2975,2899,2929,2943,3060,2911,3024,2912,2979,2945,2975,2979,2991,2942,3014,3006,2997,3020,2928,3027,2952,2928,2946,2992,2956,2928,2975,2908,3026,2920,3011,2959,3071,2943,2921,2999,2976,2987,2958,2988,3022,2947,3008,3035,2992,3007,2987,3027,2944,2979,2920,0
3047,2985,3044,2928,2993,2964,2928,2940,3003,2910,2995,2928,3007,2944,3038,2913,2999,2976,2983,2964,2948,2928,2942,2993,2915,3019,2954,3031,2980,2912,2926,2928,2962,2926,3023,2966,2971,2928,2888,3010,3024,2982,2960,3012,2934,3003,3023,2935,2987,2987,3042,3056,2952,3071,2946,2978,3051,2991,2940,2969,2945,3034,2945,3047,3027,2928,3022,2913,2989,3024,3038,2938,2918,2933,3008,2960,3003,2914,2932,3020,2973,2971,3025,2933,2999,2961,2998,2928,2995,2960,2967,2924,3011,2961,3026,2943,2965,2905,2999,0
2963,2975,2991,3024,2982,2987,2990,2990,2958,3047,2959,2958,2918,3024,2924,3035,3017,3077,3021,2899,2993,3069,2933,2971,2975,3019,3022,2891,2988,2988,2992,3011,3055,2913,3022,2960,3053,2926,2987,3023,2975,2982,3023,2993,2939,2987,2913,3054,2963,2987,3023,2960,2997,2951,3004,3011,2993,2989,2963,2977,3020,2999,3026,2944,2990,2920,2973,3079,2945,2987,3011,2892,3045,2896,2940,3055,3061,2944,2901,3045,2943,3035,3056,2959,2957,2992,2943,2966,3008,2937,2985,3042,2865,3009,2971,2960,2994,2931,2975,0
2909,2991,2937,3011,2953,3050,2939,2961,2938,2921,2939,2940,2922,3007,2976,3008,2979,2972,3051,2929,3019,3051,2949,3042,2899,2983,2920,2991,3043,2912,3019,2993,3027,3011,2954,3040,2946,2916,3042,3036,2929,2963,2916,2999,2941,2983,3018,2902,2992,3038,2917,2992,2945,3024,3011,3009,2912,2962,3024,2928,3031,3039,3010,2928,3004,2964,2992,3051,2959,2920,2962,2961,3008,2916,2989,2947,3021,3040,2959,2928,3027,2927,3023,3027,2920,3051,2943,2959,2928,3030,2920,3036,2971,3056,2946,2947,3004,3041,2973,0
2967,3015,3035,2928,3031,2928,2992,3006,2940,2974,2956,2993,2930,3019,2934,2923,2939,3025,2884,3023,2928,2978,3019,2981,3021,2993,3026,2928,3027,2906,3017,2960,2945,2963,2992,3023,2900,3008,2943,3081,2927,2966,2959,3015,2943,3011,3023,2928,2933,3010,3063,2973,3030,3035,2939,3103,3063,3031,2925,3038,2954,3004,2992,2929,2993,2920,2989,3042,3036,2934,3019,2904,2992,2927,3025,2954,2988,2970,2928,3024,2955,3062,2960,3010,2946,3013,2960,2974,2970,2959,3020,2924,2927,2933,2928,2915,3031,2960,2928,0
3067,2912,3027,2928,3010,2978,3026,2998,2992,2975,3014,3008,2928,3035,2898,3046,2987,2999,3021,2995,2942,2983,2924,3024,2992,2907,2999,3003,2939,3008,3022,2895,2999,2930,3003,2916,3003,2924,2996,2945,2928,2937,3024,2992,3008,2955,3023,3050,3027,3008,2969,2980,2985,2920,2991,2957,2917,2991,2934,2969,2973,3030,2960,3009,3015,2968,2979,2942,2983,3004,2939,2948,2930,3009,3065,2990,2993,3043,3001,3023,3047,2956,3023,2983,2923,2973,2927,3004,2943,2992,2929,3026,2913,2960,3056,3007,2961,3087,2933,0
3024,2982,3027,2986,2992,3016,3029,2964,2932,3045,3008,3051,2916,3017,3029,3009,2938,2945,3019,2973,2981,2940,2980,3019,3025,3051,2994,2998,2916,2943,3026,3051,2932,3023,2950,3047,2967,2911,3023,2976,2930,2969,3024,2946,3014,2944,2917,3022,2912,3011,2958,3047,2960,3008,3011,2960,3070,2920,2928,3047,2987,2995,3034,2928,2927,2965,3006,2963,3038,2949,3056,2977,2987,3024,2965,2938,3015,2953,3007,2914,2932,3022,2928,2999,2938,3009,2998,3003,3013,3006,3047,2998,2944,2976,2997,3047,2900,3008,3014,0
3023,2928,3031,2978,2949,3022,2997,2943,2983,2974,2928,2993,2935,3027,2922,3004,2924,2959,2911,2939,3025,2928,3039,2975,2910,2942,2989,3011,3009,2986,2976,2999,2975,2960,2987,3008,2944,2989,3071,2922,2974,3051,2964,2963,3014,2946,2944,2966,2975,2993,2987,2953,3027,3004,2979,2917,3006,2933,2931,2929,3055,2947,2944,3057,3002,2925,3029,2917,2920,2942,3020,2939,3015,2905,3014,2928,2954,2917,2990,2915,3057,2959,2949,2999,2985,2992,3024,2922,2960,3010,2930,3021,2947,3035,2905,2913,3063,2950,3029,0
2976,3018,2960,3037,2945,2957,2992,3003,2978,2971,2980,2957,2953,2901,3022,2943,3030,2958,3005,2951,2929,2966,2956,3006,2945,2981,2979,2992,3021,3024,2913,2987,2929,2951,2960,2937,3024,2989,3030,2969,3022,2960,2963,3004,2936,3024,3024,3010,2917,2990,3085,2991,2974,2934,3009,2945,2992,2900,2930,2987,2998,2991,2965,2923,3040,2943,3034,2920,2935,3025,2937,3021,3012,2926,3056,2974,3007,2944,2965,2948,2955,2952,2977,2995,2921,2941,2911,3025,2943,2936,2993,2960,2999,3018,3021,2974,3027,3021,2947,0
2989,2967,2952,2929,2965,2992,2980,3024,2967,2978,3027,2994,2961,2951,2945,2937,2960,2991,2930,2939,2999,2971,3028,3032,2983,2994,2960,3015,2960,2960,3038,2981,3008,2939,2934,3019,3056,2960,3025,2961,2990,2949,2959,2928,2994,3035,2999,3042,2914,3079,3016,2943,3004,2999,2922,2992,3027,2994,2978,3009,3022,2943,2959,2995,3024,2993,2960,2907,2977,2991,3047,3006,2929,3027,3042,3019,3027,2999,2953,3045,2946,2923,3070,2915,3008,2954,2991,2948,3041,2981,2971,2927,3045,2974,3025,2949,2925,3043,2960,0
2991,2942,2937,2997,2960,3047,2915,2950,3019,3008,2922,2968,2953,2920,2917,2938,2960,2990,2961,3022,2928,2990,2995,3028,2954,2920,3014,3024,2900,3033,2945,3026,2993,3004,2981,2901,2991,2965,3024,2977,2942,3024,2927,3024,2916,3051,2990,3010,2930,2943,3002,3024,2962,2963,2939,3056,3086,2981,3070,3013,3004,2943,3006,2945,2899,2957,2929,2997,2929,3031,2928,2992,2943,3043,2959,3012,2923,2931,2978,2936,3019,2944,3007,2928,3008,3027,2974,2934,3008,2930,3031,2917,3071,2937,2975,2945,2896,2959,2981,0
3003,3007,2993,2949,2923,3025,2933,2995,2934,3004,2931,2992,2942,3035,2958,2928,3007,3019,2999,2970,2953,2957,2977,3051,2948,3024,2948,3002,2962,2924,2937,2928,2992,2995,3015,2932,2993,2932,2975,2950,3018,3019,2914,3047,2948,2914,2958,3054,2940,3011,3067,2992,3024,3019,2983,3005,3023,2967,2983,2974,2988,2917,2992,2972,3071,3024,3043,3057,2909,2970,2960,2940,3018,2956,2936,2996,3007,3003,3024,3019,3015,2979,2966,2981,2941,2977,2974,2983,2934,2966,3038,2963,3007,2964,2980,2993,2905,3027,2915,0
2909,3043,2930,2942,3034,2956,3012,2976,3056,3031,3059,2916,2960,2989,2955,2941,2930,3039,2933,3014,2921,3024,2928,3026,2924,2983,2963,3024,2991,2998,2972,2991,2989,2974,2960,3034,3014,2943,2996,2992,2939,2992,2973,2936,3047,3055,2941,2955,3086,3007,3031,2921,3041,2945,2987,3031,2960,2995,2926,2987,2974,2955,2992,3015,2915,3023,2922,2924,2983,2976,2962,2961,2957,2965,2909,3023,3042,2896,3022,2972,2991,2990,2939,3015,3088,2986,3005,2988,3015,2970,2994,2999,2996,2989,2986,3043,2944,2979,2918,0
3024,2964,3009,3056,3027,2970,3051,2975,3063,2956,2997,2974,2965,3026,2933,2922,3030,2953,3019,2944,3008,2970,2999,2978,2987,3023,2922,2920,3051,2954,2953,2981,2948,2992,2961,3034,2932,3056,2930,3083,2949,2921,2949,3055,2896,2999,2928,3033,3015,2991,2980,3022,3035,2944,2997,3005,2960,3015,2990,3026,3063,2968,3026,2915,2928,3039,2925,2987,3059,2946,2918,3029,2993,3059,2937,3031,2960,3039,2963,2992,2987,2933,2920,2928,3041,2936,3045,2932,3024,3023,2924,2957,3035,2986,3029,2924,3047,2916,3027,0
2959,3041,2947,2975,2937,2987,3025,2911,2925,2990,2923,3003,2898,2994,2944,2977,3025,2975,3003,2984,2999,2908,3095,2995,2992,2987,2971,2915,2943,3012,2939,2960,3047,3030,2998,2928,2924,3082,2917,3067,2963,2999,2961,2998,2999,3010,2945,3056,2979,2998,2948,2947,3043,3003,3031,2967,2941,2975,3017,2991,2960,3035,2976,2930,2963,2993,2924,3005,2973,3005,2944,3047,2968,2946,3047,2945,3038,3031,2902,3039,3023,2923,2992,3059,2922,2977,3018,2978,2915,2994,2992,2993,2962,2998,2932,2915,3010,2945,3035,0
2972,3039,2986,2928,2943,3031,2992,2948,2965,3033,2955,3069,3059,2901,3000,3023,2933,3022,2919,2920,2971,3027,2947,2978,3035,2925,3040,2931,3039,2971,3042,2966,2959,2992,2949,3019,2929,3011,2897,3031,2928,3079,2920,3023,3047,2969,2976,3039,2928,2974,2992,2991,2916,3022,2935,2999,2920,2999,2946,2937,2974,2947,3024,2916,3023,3028,2978,3040,2922,3046,2931,2999,2943,2970,2957,2932,2995,2898,2995,2911,2987,2947,2911,2923,2978,3015,2946,2896,3011,2962,3079,2922,2991,2928,3050,2937,2960,2987,3024,0
2929,3055,2961,2939,3042,2896,2983,2921,3024,3027,2941,2896,2977,2964,3057,2990,2952,3063,2943,2992,3040,2918,3031,2958,2992,2914,3018,2917,3063,2945,3067,3020,2976,2919,2973,3014,3059,2965,2995,3051,2899,3020,2945,2950,2989,3029,2913,2997,3002,2950,3013,2988,3011,3000,3043,2922,2923,2992,3019,2938,2928,3019,2931,2933,3001,2983,2995,2932,3012,2949,2974,2931,3035,2913,2992,2980,2967,3003,3015,2989,3024,3027,2922,2960,3004,2992,3056,2960,2992,2916,2926,3015,2922,3023,2993,3013,2931,2975,2910,0
3041,3005,2966,2938,3019,2954,3003,2929,2987,2914,3059,2946,3077,2956,3045,2922,2998,3045,2912,3000,2934,3024,3024,3039,2999,3008,2914,2963,3002,2965,2925,3023,2987,2938,3011,3015,2990,3041,2905,2989,2993,2914,2960,3045,2948,3011,3035,2925,2960,3043,2926,3022,2925,2960,2948,2983,2946,3038,2906,2972,2995,3030,2924,2928,2999,2975,3015,2928,2982,3023,3024,2941,2921,2999,3015,3026,2931,3026,2917,3059,2995,2984,2956,3027,2943,3014,2910,2995,2974,2944,2935,2985,3059,2927,2897,2992,3004,2992,2907,0
3021,2982,3003,2960,3047,2960,2980,3027,2979,2975,2975,2992,2994,3024,2972,2993,2932,3025,2901,2914,3023,2896,3007,3058,2920,2973,2938,2971,3023,2928,2933,2974,3023,2936,2943,2994,2993,3004,2960,2974,3022,3005,2925,3039,2966,2983,2937,3043,3021,2989,2967,2945,3050,2914,2946,3047,2929,3031,2933,2995,2946,2995,2978,3051,2956,2940,2936,3067,2933,2956,2982,2981,2987,2965,2974,2942,2932,2928,2924,3025,2956,2987,2928,2983,3002,3020,2917,3023,2949,2987,3019,3002,3027,2997,2991,3010,3014,2948,3007,0
2979,2998,3024,3031,2984,3008,2936,2933,3047,2937,2960,3026,3024,2948,2921,3024,2944,2979,2962,2951,3019,2937,2918,3019,2961,2965,3024,3011,2960,2897,2979,2957,2912,3011,3025,2999,2936,2963,3003,2948,3008,3085,2965,3015,3008,2933,3043,2983,2974,2944,2987,2957,3027,2979,2931,3017,2932,2960,2993,2992,2952,3039,3037,2943,3022,2896,3093,2911,3030,2928,3011,2993,2971,2960,2988,2963,3006,3025,2969,3024,3047,3053,2991,2957,3051,3038,2993,3011,2938,3023,2961,2994,2994,2943,3047,2975,2924,3043,3030,0
2962,3059,3029,3034,2917,3003,2921,3040,3007,2947,2972,3027,2993,3058,3039,2938,3008,2928,2995,3024,3030,2987,2916,2983,2962,2938,2958,2972,3017,2981,3070,3031,2992,3022,3003,3011,2989,3002,2897,2955,2996,3002,3008,2911,3037,3042,2970,3055,2924,3015,3029,2974,2954,3025,2940,3057,2930,2987,3021,2913,2949,2960,3008,2967,2996,3041,2930,3046,2921,3031,3030,3022,2960,2989,2992,2999,2909,3010,2925,2953,2942,3040,2960,2996,2897,2960,2983,2912,2986,3047,2986,3023,2900,3039,3018,2904,3039,2960,2945,0
2994,2988,3043,3029,2915,3027,2946,3031,2982,2976,2928,2944,3023,3011,2913,2974,3038,2896,2896,3026,2939,2973,3051,3015,2962,2949,2963,2983,2943,2915,2951,2926,2961,2863,2954,2874,2945,3024,2864,2992,2979,2960,2950,2968,2945,2901,2992,2919,2975,2931,2989,2969,2912,3042,2963,3056,2935,2981,2979,2980,3003,2939,3031,2905,2967,3046,2924,2965,2924,3055,2931,3006,2997,2927,3023,2921,3043,2924,3037,3003,2960,3012,2937,3022,2960,3059,2944,2974,2944,2915,3043,2933,3033,3035,2938,2994,2987,3035,3009,0
3018,2995,3035,3027,2924,2991,3047,2933,2924,3023,3039,2921,2933,2928,3070,2960,2960,2939,3014,2960,2951,2994,3011,3022,2977,2934,3025,2916,2999,2949,3071,2951,2928,3015,2995,2945,3039,2960,2967,3037,2930,2981,2909,3029,2933,3018,2934,3024,3003,2973,3056,3016,2922,3039,2957,2899,3053,2992,2996,3011,2917,3003,3066,2933,2948,2949,3071,2962,3017,2985,3011,2939,2931,3007,2977,2945,2993,3009,2993,3031,2982,2953,2981,3023,3031,3007,3044,2937,3067,2938,3008,3024,2916,2981,3042,2983,2992,2974,3056,0
3000,2928,3027,2978,3051,2976,2926,2939,3026,2936,3005,2944,2943,2975,3015,2982,3014,2939,3043,2974,3024,3055,2915,3030,2962,2990,2975,2988,2992,2930,3030,2960,2917,2937,3009,2963,2975,2906,3019,2991,2974,2989,2975,2921,2962,2928,3013,2933,3023,2923,3028,2901,2933,3022,2950,2927,2961,2936,3029,2928,3029,2969,2948,2979,3038,2928,2992,2993,2916,2940,3053,2985,3035,2929,3014,3008,3007,3024,2957,2960,3039,2932,3043,2974,3007,3057,2937,3042,2931,3055,2911,3006,2954,3024,2921,2993,3045,2983,2989,0
3006,3024,2917,3051,2994,3005,2975,2915,2972,2954,2992,2993,2897,2999,3007,2960,2973,2992,2945,3003,3119,2947,2939,3035,3005,2993,2960,3103,2975,3011,3046,2954,3019,2928,2934,3011,2970,3005,2985,2962,2942,3002,2963,2993,3067,2935,2985,2944,3043,2925,3025,3008,2963,3021,3008,3043,2958,2929,2920,2990,2965,3009,2961,2983,3047,2960,2977,2981,2960,2960,3024,2978,2922,2978,3008,2955,2928,2912,3024,2924,2993,3043,3051,2975,3011,2984,2928,3051,2933,3008,2932,3035,2928,3003,2869,2993,3018,3024,2942,0
3051,2959,2992,2982,2969,3047,3018,3024,3012,2995,3006,2998,3047,2935,3011,3040,2963,3039,2945,2954,2983,3031,2960,2998,2971,2928,3037,2926,2975,2927,3026,2976,2982,2939,2956,2923,2992,2923,2960,3028,2933,3017,3039,2935,2926,2995,3025,2940,2950,2695,2982,2993,2959,2911,3015,2960,3025,3025,2929,3059,2992,2928,3014,2928,2930,3006,3003,3013,2987,3023,2994,2999,2992,2994,2997,3022,3003,3001,2938,2946,2978,2953,2928,2995,2928,2992,2995,2954,2942,2930,3024,2916,2949,2971,3068,2931,2915,2991,2924,0
2982,2972,2960,2946,3003,2924,3055,2931,2966,2913,2911,2986,2900,3038,2960,2937,2974,3021,2933,3039,2910,2989,3046,3007,3009,2914,3017,2972,2923,3024,3044,2987,2954,2947,2992,2996,3019,2927,3015,2992,2996,2927,3071,2903,2876,3063,2981,3018,2993,3003,2952,2928,3005,3028,2937,3042,2921,3021,2938,2974,2928,3027,2932,2963,2944,2944,2933,3003,2957,2917,2950,3043,2933,2972,2944,2951,2951,2995,2929,2989,2989,3047,2965,2961,3010,3008,3003,3008,3025,2956,3037,2928,3043,2924,3018,3010,2983,2979,3012,0
2955,3035,3035,2942,2998,2962,3071,2953,2925,3055,3010,2960,2949,3026,2928,3056,2963,2963,2987,2972,3008,2997,2997,3027,2953,2998,2890,3049,2968,3010,2935,2999,3008,3022,2983,3046,2992,3040,3019,2991,3011,2967,2971,2968,3055,2970,2977,2969,3071,3055,2966,3111,3007,3027,3064,3046,2973,2951,2933,3030,2921,2971,2943,2979,2967,2964,3035,2980,2993,3025,2962,3023,2971,2991,2950,2946,2952,2928,2991,3015,3010,2959,3055,3025,2948,3040,2918,3030,2948,3031,2947,3015,3043,3028,3047,2907,3069,3009,2988,0
2993,2936,2993,2954,3009,3036,3019,2952,2949,3027,2993,2939,2932,3054,3071,2993,3015,2992,3041,3040,3042,2973,2923,2991,2975,2985,2948,3056,2935,2946,3061,2961,2847,2948,2965,2966,3057,2942,2977,2908,3035,3012,3035,3019,3048,2943,3024,2980,3010,2936,3007,3006,2943,2993,2946,2962,3024,2946,3034,2966,2953,3028,3019,2980,2995,2966,2957,2989,3047,2999,2961,3009,2914,3007,2923,2963,3115,2911,2990,3012,2951,3002,3030,2960,3003,3040,2974,2971,2992,2951,2927,3055,2929,3017,3020,2961,2932,2979,2961,0
3055,2995,3015,2948,2971,2930,3024,2910,3035,2993,3044,2974,2979,3005,3031,2896,3014,3007,2992,2960,2978,3007,2991,3019,2925,3062,2934,3035,2925,3023,3008,3025,2953,2978,2923,3045,2949,2956,2944,2938,2979,2991,2964,2944,2937,2999,2989,2959,3025,2995,2931,2932,2966,2935,2931,3011,2922,2999,2968,2998,3012,2951,3018,2922,2932,2944,2958,3009,3035,3003,2975,2991,2959,2929,3003,2948,2991,2930,2947,3022,3015,3010,2955,2928,3011,2981,2944,3079,2945,2999,3010,3008,2943,3030,2943,3039,2943,2958,2956,0
2999,2940,2994,2986,2933,3007,2962,2978,3045,3024,2994,2973,2976,3002,2995,2972,2983,2864,2963,3023,2941,3017,2924,3024,2991,3006,3031,2975,3047,2944,3047,2966,2904,2990,3047,2941,3015,2950,3015,2948,3024,2978,3024,2926,3004,3056,2979,2983,2910,3008,3024,2917,3023,3024,2942,2981,2960,3024,2976,2988,2945,2941,3056,3035,2946,3045,2946,3057,2993,2968,2989,2913,3030,2955,2999,2962,2929,2980,3009,2926,3047,2936,2938,2959,2942,3047,2992,3015,2924,3042,2995,2989,3026,2948,3027,3006,2946,2965,2917,0
2990,2914,3056,2937,2974,2947,2970,3019,3020,2971,2975,2959,3020,2960,2896,2980,2987,3047,2973,3042,2937,2950,2987,2967,3011,2960,2977,3007,3011,2948,3056,2938,3066,2944,3026,2954,3055,2930,2986,2927,3008,2962,3056,2965,3010,2991,2926,3014,3005,2938,2928,2998,2928,3003,2920,3051,2924,3050,2921,3084,2921,3020,3038,2999,2927,2979,3014,3021,2980,2957,2916,2946,2923,2987,2982,2986,3044,2876,2951,2899,3023,2999,3006,2999,3036,3008,3009,2996,2979,2994,2913,2942,3024,2993,2989,2979,3063,2965,2949,0
3043,3063,2944,3023,3010,3004,2935,2927,2945,3025,2960,3055,2957,2988,3019,2928,3041,2963,2958,2939,2942,2954,3012,2945,3043,2903,2929,2976,2960,2981,2985,3043,2993,2943,2987,2912,3051,2958,3008,2938,2960,3068,3047,2965,2969,3010,3013,3021,2928,2948,2979,3023,2993,3059,2965,2975,2958,2971,3000,3015,2967,3019,2959,2968,2945,2961,3006,2992,2992,2956,2976,3043,2921,2930,3010,2944,2967,2947,3042,2941,3066,3041,3043,2935,3043,3009,2997,2960,3043,2973,3070,2937,3023,2953,2978,2989,2930,3056,2937,0
2978,2918,3023,2929,3003,3019,3047,2928,2991,3071,2955,3059,2962,3040,2971,3024,3024,2968,2989,2912,2955,3026,2924,3019,2976,2916,3010,2958,3026,2928,2992,2951,3026,2940,3008,2896,2978,3052,3023,2928,2896,3070,2961,2925,2999,2983,2937,2987,2916,3035,2960,2985,3035,2947,3032,3012,3071,2960,3024,3026,3051,2992,2941,3031,2992,2992,3039,2971,3014,2943,2999,3041,3023,2927,2927,3015,2928,3030,2949,3035,3003,2980,2979,2998,3055,2948,3031,3019,3033,2928,3019,3040,3014,2936,3024,2948,2993,3017,3053,0
2932,3008,2951,3051,3008,2985,3043,2960,3035,3027,3024,3007,2933,3022,2947,3078,3063,2909,3051,2908,2991,2876,3023,2952,3024,2929,2960,2958,3003,2960,3058,2952,3056,3023,3011,2957,3047,2952,2931,2960,3015,2938,2914,2962,3039,2942,3008,2944,2997,2937,2992,2983,3024,2962,3019,2928,3023,2928,3009,3023,2915,3041,2941,3011,2949,3023,2937,2940,2965,2967,2972,3014,2906,2928,3024,3004,2960,3079,2907,2998,2944,2929,2983,2945,2933,3024,2964,3079,2943,3067,2958,3057,2926,2900,2928,3021,2958,3056,2992,0
2961,2978,3019,2970,2891,3017,2948,3031,2932,3025,2961,2883,3063,2928,2977,2964,3031,2943,3014,2947,2955,2928,3012,3007,2935,3016,3015,3024,2979,3011,2916,3043,3008,2964,3051,2946,2945,2962,2901,3009,2985,2938,2975,3009,2928,2915,3027,2977,2933,3008,2959,2980,2969,2965,2923,3007,2959,3025,2975,2989,2934,2976,2975,2969,2928,3039,2928,3031,3029,2992,2983,2977,3066,3002,2925,3054,3035,2928,3023,2928,2993,3025,2941,2962,3007,2930,3010,2950,2978,2942,3039,2979,2881,2982,2928,2960,3011,3003,2929,0
3011,2993,2957,2942,2928,3047,2969,3047,2928,3008,2943,2991,2978,3035,2986,2931,3028,2921,3039,3055,2961,2946,2963,3007,2941,3025,2961,3056,2963,2960,2942,2994,2958,3007,2938,3002,2966,2987,2931,3019,2995,2939,2994,2930,3005,2938,2888,3067,2938,3031,3004,3021,3034,3015,2945,2959,3009,2970,2999,2922,3026,2929,2987,3029,3008,2967,3019,2921,3021,2965,3009,2936,3025,3018,2993,2991,3015,2984,2992,3015,2992,3000,2970,3029,2992,2944,2946,2928,3003,3015,2950,2900,3011,2927,3047,2938,3039,2927,2947,0
2991,3002,2950,2993,3045,3025,2976,2960,2963,2937,3031,2928,3028,3027,2912,2928,3019,3015,2945,3083,2941,2935,3055,2956,3055,3006,3007,3008,3000,2983,2955,2915,2967,2992,3059,3010,3030,2993,2966,2959,3024,2925,3003,2934,2992,2939,3024,2933,2994,3015,2943,2957,2983,2960,3005,2941,2964,3003,3026,3028,2911,3026,2966,3043,2992,2990,3003,2991,2995,2960,3051,2950,3026,3024,2930,2937,2994,2933,2964,2945,3038,2941,2999,2914,3037,3031,2940,3063,2930,2991,3043,2954,2992,2940,2917,2986,2989,2971,2963,0
3026,2960,2960,2948,2917,2992,2939,2964,2986,2928,3027,2928,2950,2948,2991,2971,2974,3027,2908,2999,2902,3040,2945,3056,2973,3035,2909,3035,2991,2985,2992,2941,2960,3011,2960,3043,2932,2965,2918,2928,3003,2920,2983,2991,2956,3014,2939,3051,2954,3035,3047,2912,2920,3083,2925,3004,2911,2998,2909,3037,2949,2998,2920,3014,2929,2970,2944,3018,3043,2978,3050,2926,3011,2908,2999,2909,3083,2938,2963,3014,3034,2956,2969,3002,2956,3038,2987,3043,2927,2951,3007,3047,2926,2976,3042,3051,2997,3067,3003,0
3024,3011,2926,2968,3015,2960,2991,2975,2996,2990,2937,2980,2964,3000,2939,3008,2992,2972,2963,2960,2932,2987,2976,2954,2974,2958,2899,2976,2921,3007,2937,3067,2955,3019,2945,2990,3013,2972,2935,3039,3023,2950,3053,2960,3031,2966,2920,3039,2979,2950,2912,2993,2999,3003,2991,2960,2995,2972,2921,2993,3023,2934,3079,2942,2960,2925,2967,2930,3041,2937,2990,3001,2992,2940,3056,2979,3012,2928,3042,2900,3031,3025,3002,2992,2936,3027,2928,3035,2970,2921,3031,2913,3024,3030,2877,2992,2986,2944,3008,0
2941,3021,2888,3027,3060,2998,2942,3055,2956,3019,3047,2992,2954,2966,3046,3024,2990,3019,2936,3019,2951,3026,3007,2927,3006,2992,3023,2916,2993,2996,2927,2980,2929,3026,2950,3020,2940,2998,2928,2931,3027,3021,2955,3039,2939,3087,2935,2928,3006,2957,3038,3018,3023,2928,3008,2990,2992,2992,2992,2994,2964,3055,2953,2946,3024,2953,3008,2937,2941,3014,2943,3031,2921,3055,2913,2947,2994,3071,2924,2961,3004,2926,2928,3061,2987,3005,3025,2966,3008,2926,2960,2960,2950,2944,3019,2925,3012,2963,2996,0
2999,2930,3079,2949,2999,2937,2936,2999,2956,2959,2982,2901,3017,2920,2968,2993,2911,2975,2994,2948,3003,2998,2928,3040,2927,3030,2971,2970,2928,3014,2947,2985,3023,2910,3031,2952,2995,2928,2982,2990,2966,2992,3039,2959,2992,3025,2915,3043,2953,3023,3004,2925,3055,2933,2947,2958,2939,2974,3018,3043,2959,2963,3067,2922,2940,3025,2930,3011,2960,3024,2967,3024,2970,3029,3036,2992,2993,2954,2919,2983,2993,2928,2943,2960,2978,2988,2994,2941,2916,3042,2991,3063,2944,2993,2946,3014,2916,3043,3041,0
2980,2971,2933,2957,2940,3011,2991,2928,2999,3006,2977,2992,2957,3023,2917,3031,2988,2979,2916,3047,2941,3009,2932,2957,3024,2990,3046,2963,2990,3005,2927,3009,2965,3031,2958,3015,3000,2928,3018,3009,2959,3056,3007,2995,2986,2912,3024,2985,2960,2963,2962,2917,3044,2905,3007,2969,2974,2948,2923,2928,3031,2983,3045,2921,3047,2913,2976,2913,2944,2928,3031,3019,2937,2928,3017,3028,3055,2923,2987,2947,2992,2960,2919,2993,2961,3047,2934,2960,2960,2961,2975,3031,2960,3008,2960,2973,3009,2949,3035,0
