3021,2969,2495,3009,2992,2975,2977,2992,2992,3009,2937,3014,2975,2986,2975,2990,2973,2951,3015,2960,2980,2996,2973,2992,2945,3009,3002,2973,2983,2962,2987,2992,2966,2999,2983,2998,2982,3006,2977,2990,2991,2990,2949,3010,2960,2982,2978,2971,2993,2988,3015,2946,3002,3005,2970,2990,2991,2965,3013,3003,2943,2978,2978,3019,2959,2982,2966,2989,2992,2971,2964,2977,2959,2965,2990,2963,3003,2975,3004,2972,3007,2944,3001,2998,2960,3006,2969,2988,2992,2966,2986,2997,2989,2930,2966,2976,3011,2977,2986,0
2986,2965,3006,2978,2968,2986,2979,2990,2969,2981,2993,2960,2987,2997,2962,2993,2950,2995,2969,2963,2975,2995,2965,2993,2998,2965,3002,2954,3007,2964,2979,3009,2959,2960,3015,2979,2969,2992,2965,2977,2992,2995,2972,2955,2998,2949,2999,2953,2999,2956,2971,2995,2960,2992,2994,2961,2971,2992,2959,2999,2954,2994,2973,2971,2995,2979,2989,2950,3009,2960,3007,2971,3005,2974,2987,2982,2991,2963,2979,2977,2983,2992,2966,2961,2997,2969,2992,2981,2986,3006,2978,2964,2979,2991,2969,2995,2953,2995,2981,0
2960,2979,2999,2960,3009,2946,2991,2956,3007,2987,2971,2999,2961,2966,2963,2992,2954,3003,2966,2967,2987,3003,2952,2979,2976,2963,3015,2995,2957,2985,2997,2986,2969,3006,2983,2973,2982,2975,2993,2964,3006,2948,2978,2993,2982,2998,2975,2989,2975,2978,2997,2997,2982,2979,2982,2960,2958,3003,3002,2971,2985,2960,2998,2992,3002,2990,2963,2962,2966,2995,2994,2984,2975,2970,3002,2964,3003,2963,3003,2960,3015,2983,2985,2974,2961,2989,2978,3003,2961,2979,2985,2962,2992,3003,3005,2963,3001,2965,2983,0
2960,2962,3007,2966,2981,2957,2992,2989,2975,2957,3005,2975,3011,2998,2993,2975,2966,3007,2971,2994,2986,2953,2980,2995,2958,3007,2975,2987,2974,2965,3002,2959,2987,2987,2960,2986,2989,2987,3008,2999,3003,2960,2987,3010,2982,2966,2970,2965,2993,2975,2995,2995,2971,2965,2995,3011,2961,2991,2966,2977,2992,2945,2999,2987,2959,2966,2982,2975,2990,2992,2999,2998,2964,3002,2968,2965,2972,2999,2994,2981,2984,2970,2989,2977,2999,2974,2975,2991,2953,2995,2989,2977,3002,2962,2989,2978,2957,2960,3003,0
2960,2995,2989,2959,2960,3011,2978,2987,2999,2961,2973,3003,2992,2960,2995,2970,3008,2960,2979,2992,2976,2987,2999,2969,2981,2965,2991,3003,2992,2979,2992,2965,2986,2956,2987,2985,3010,2992,2965,2998,2969,2989,2991,2970,2989,2996,2958,3010,2960,2991,2963,2992,2966,2983,2995,2982,2995,2973,2976,3007,2983,2989,2958,3007,2966,2995,2994,2973,3007,2967,2989,2992,2978,2999,2960,2995,2973,2962,2986,2966,2963,2973,2971,2992,2970,2992,2982,2973,2997,2962,2995,2995,2961,2988,2960,2989,2957,2969,2960,0
2991,3002,2974,2989,2959,2992,2973,2979,2980,3010,2982,2992,2974,2959,3006,2957,2992,2961,2991,2969,3003,2992,3005,2977,2992,2960,3008,2981,2981,2996,2971,2981,2971,2992,2938,2960,2970,2983,2990,2976,2989,2981,2979,2983,2962,2983,3003,2953,2992,2973,2990,2970,3005,2974,2998,2991,2961,2991,2963,2986,2970,3007,3007,2960,2995,2973,3003,2967,3011,2986,2973,2979,2971,2989,2975,3009,2960,3011,2992,2994,2981,2978,2992,2991,2976,2999,2999,2979,2992,2953,2993,2972,2977,2965,2992,2978,2992,2975,3005,0
2961,2991,2975,2962,3013,2981,2994,2989,2978,2991,2965,2991,2982,2992,2968,2967,2997,2999,2979,3009,2990,2992,2993,2963,2995,2977,2983,2963,2995,2963,2987,2973,2964,2991,2990,2960,2992,2975,3007,2952,2991,2910,3005,2973,2964,2971,2998,2961,2979,2990,2944,2968,2947,3006,2950,3008,2971,2961,2995,2989,2977,2965,3008,2947,2996,2992,2980,2979,2980,2970,2957,2957,2994,2949,2999,2970,2982,3008,2992,2960,2992,2995,2960,3001,2963,2995,2982,2960,2979,2974,2969,3002,2965,2960,2975,2961,3008,3011,2975,0
2996,2962,2960,2992,2977,2995,2962,2992,2998,2969,2996,2966,3007,2975,2999,2966,2977,2960,2992,2958,2979,2992,2958,2988,2978,2988,2979,3007,2992,2967,2960,2982,2999,2998,2965,3005,2958,2943,2995,2967,2991,2988,2961,2978,2982,3006,2977,2983,2959,2958,2988,2982,2976,3002,2960,2983,2989,2975,2961,2986,2957,2992,2962,3003,2996,2964,2980,2989,2994,2964,2971,2998,2999,2978,2999,2975,2973,3002,2994,3001,2971,2982,2983,2969,3003,2978,2966,2976,2989,2967,2992,2985,2972,2966,2985,2994,3010,2979,2992,0
2991,2965,3007,2973,2989,2977,2992,2963,2992,3002,2960,2966,3003,2960,3015,2974,2999,3003,2983,2996,2967,2985,2980,2967,2996,2967,2962,2986,2983,2979,2983,2974,2983,3006,2970,3004,2974,2983,2962,2992,2974,2958,3009,2963,3008,2956,2989,2981,2971,2998,2978,2994,2960,2965,3003,2949,2961,2997,3006,2983,2999,2990,2989,2969,2993,2970,3003,2991,2971,2995,2990,2982,2994,2960,2992,2980,2979,2990,2975,2977,2977,2978,2975,3008,2986,2987,2997,2976,2960,2994,2986,2976,2992,2977,2981,2992,2966,2986,2977,0
3007,2974,3005,2970,2971,2979,2981,2975,3009,3001,2956,3001,2989,2960,2991,2985,2993,2979,2980,2996,2993,2959,3004,2982,2997,2969,3009,2961,2991,2961,2954,2993,2960,2971,2992,3003,2971,3006,2975,2994,2994,2979,2983,2976,2966,3008,2975,2967,2991,2960,3002,2975,2961,2992,3003,2995,2979,2955,3008,2981,2987,2992,2979,2979,2954,2971,2995,2962,2975,2992,2955,3008,3019,2944,2995,2960,3007,2987,2969,2981,2953,3002,2957,3011,2970,2983,2940,2975,2983,2990,2983,2960,2977,2953,2977,2983,3001,2997,2952,0
2994,2968,2953,3015,3007,2998,2992,2999,2974,3002,2983,2990,2992,2960,3003,2965,2997,2995,3022,3003,2960,2987,2987,2970,3005,2953,2999,2969,3010,2962,2997,3003,2947,2985,2953,3011,2966,2999,2958,2967,2995,2963,2986,2960,2983,2962,2992,2992,2991,3008,2960,2977,2992,2972,3005,2985,2985,2967,2983,2960,2990,2960,2966,2999,2978,2990,3003,2951,3003,2978,2987,3007,2983,2991,2969,2998,2988,2989,2995,2961,3007,2965,3003,2990,2977,2983,3009,2974,2999,2979,2978,2995,2973,2991,2966,2981,2983,2983,2973,0
2989,3007,2966,2985,2977,2998,2961,2991,2987,2982,2999,2983,2957,2992,2960,2994,2960,2991,2987,2983,2995,2966,2992,2986,2970,2972,2963,2977,2979,2986,2964,2983,2987,2960,2992,2967,2992,2957,2976,2975,2999,2966,2994,2976,3001,2982,2989,2964,2981,2991,2990,2993,2979,2961,2983,2982,2960,2992,2975,2986,2992,2974,2999,2987,2983,3007,2960,3008,2992,2984,3011,2974,3002,2963,2983,2975,2975,2978,2960,2997,2960,2981,2995,2983,2975,2974,2983,2970,2977,2963,2976,2993,2960,2999,2975,2969,3009,2992,2990,0
2955,2992,2970,2964,2998,2961,2969,3007,3005,2969,2975,2986,2999,2978,2973,2993,2977,2979,2966,2978,2976,2986,2991,2981,2996,2977,2986,3007,2973,2979,2995,2994,2979,2969,2999,2978,2998,2975,3019,2986,2983,2987,2986,2989,2994,2969,2967,2991,2964,2999,2989,2981,2971,2993,2981,2986,2989,2980,3002,2976,3008,2955,2992,2983,2961,2991,2960,2981,2966,2960,3002,2977,2997,2966,2960,2970,2960,2979,2990,2946,2985,2987,2977,2996,2973,3010,2983,2985,2986,2962,2991,2977,2991,2998,2999,2979,2995,2950,3007,0
2975,2967,3015,2960,3015,2961,2959,2995,2964,2992,3014,2966,2961,2973,3007,2985,2981,3019,2956,2991,3001,2954,2993,2977,2967,2986,2960,2993,2998,2964,2992,2956,2989,2989,2965,2977,2439,3008,2960,2995,2963,2987,2983,2998,2967,3008,2999,2955,3010,2975,2992,2987,2958,2989,2969,3009,2946,3011,2953,2975,2990,3003,2977,2973,2996,2971,2963,2985,2960,3003,2961,3001,2982,2982,2992,2961,2979,2985,2987,2997,2978,2961,2992,2971,2954,2991,2983,2964,3013,2972,2960,2975,2975,2992,2994,2987,2999,2961,2991,0
2975,2976,2979,2970,2987,2986,2995,2991,2982,2974,2964,2986,2974,2960,2989,2986,2995,2971,2995,2998,2990,2977,2994,2985,2963,3005,2992,2981,2978,2979,2995,2979,2967,2994,2967,2974,2957,2993,2973,2959,2993,2997,2974,2998,3007,2965,2991,2986,2967,2966,2972,2999,2990,2986,2995,2977,2977,2988,2960,2995,2963,2971,2960,2992,2979,2991,2982,2977,2981,2960,3003,2995,2966,2995,2975,2990,3003,2968,2988,2995,2962,2977,2997,2960,2996,2966,2993,2983,2976,2967,2997,2992,2973,2960,2971,2991,2973,2980,2983,0
2987,2963,2985,2965,2997,2965,2991,2993,2975,3003,2971,2999,2966,3005,2971,2994,2969,2985,2998,2992,2973,3002,2992,2977,2974,2989,2991,2987,2968,2997,2953,2995,2974,2999,2992,2997,2986,2983,2997,2970,3005,2987,2959,2998,2958,2977,2981,2977,2967,2992,2981,2967,2979,2983,2978,2999,3003,2987,2970,2995,2967,2991,2965,2971,3003,2994,2971,2992,2987,2963,3002,2979,2967,2993,2964,2990,2993,2991,2970,2991,2970,2987,2975,2983,2989,2992,2978,2994,2974,2993,2993,2981,2979,2991,2990,2967,2995,2978,3001,0
2991,3003,2979,2960,2975,2979,2990,2977,2992,2999,2978,2992,2963,2971,2971,2974,2997,2977,2990,2975,2999,2962,3007,2967,2999,2973,2992,2961,2986,2994,2974,2970,2987,2982,2991,2975,2991,2977,2977,3004,2975,2975,2961,2985,3005,2960,3002,2967,2992,2961,2993,2965,2971,2987,2959,3005,3008,2999,2984,2978,2993,2960,2993,2969,2993,2969,2994,2965,2969,2976,2967,2991,3003,2973,3008,2959,2989,2960,2996,2977,2995,2977,2965,2957,2964,2989,3007,2970,2995,2984,2963,2959,3001,2979,2992,2972,2975,2991,2970,0
2987,2960,2976,2996,2960,3002,2950,2990,2969,2965,2983,2978,2979,3005,2967,2975,2940,3003,2978,2991,2991,2973,3013,2986,2982,3007,2983,2977,2975,2961,2988,2954,2987,2966,2971,2992,2990,2947,2978,2977,2989,2981,2982,2961,3019,2982,2977,3011,2970,2995,2990,2988,2960,2991,2963,2985,2981,2991,2965,2992,2965,3002,2965,2995,2974,2982,2974,2983,2962,3002,2990,2974,2978,2960,2992,2973,2957,3007,2994,2986,2974,2960,2977,2971,2975,2980,2986,2994,2978,2988,2974,2992,2960,2993,3001,2950,2963,2983,2960,0
2972,2992,2953,2992,2960,3011,2973,2973,2975,2992,2977,2990,2992,2976,2992,2960,3003,2983,2969,2990,2987,2973,2987,2954,2994,2993,2977,3008,2960,2992,2963,3005,2979,3008,2965,3003,2959,2971,2960,2986,2997,2980,2973,2973,2974,2989,2997,2972,2979,2992,2961,2981,2959,2998,2969,2983,2989,2987,2992,2966,3005,2962,2992,2974,2972,2992,2958,2989,2992,2970,2980,2960,2988,2974,2995,2979,2973,2992,2973,2974,2979,2960,2993,2979,2999,2961,3007,2972,3003,2999,2959,2987,2991,2958,2978,2992,2990,2992,2986,0
2972,2994,2992,2960,2976,2992,2971,3002,2963,2973,2979,2971,2962,2990,2970,2999,2961,2975,2981,2993,2983,2990,2973,2992,3002,2982,2981,2969,2987,2960,2983,2966,2975,2990,2995,2987,2992,2992,2981,2971,2979,2993,2963,3008,2985,2987,2999,2990,2992,2970,2963,2966,2978,2995,2979,2988,2979,2982,2992,2992,2978,2974,2972,2992,2960,2993,2973,2989,2981,2997,2991,2970,2992,2962,2988,2983,2988,2987,2971,2989,2960,2990,2962,2985,2977,2977,2974,2976,2963,2986,2975,2983,2975,2971,2998,2978,2971,2995,2992,0
2965,2986,2992,2964,2992,2971,2981,2993,2964,2990,2981,2963,2995,2982,2991,2963,2998,2974,2996,2982,2960,2983,2986,2991,2985,2993,2989,2973,2993,2960,2999,2992,2992,2972,2979,2992,2993,2960,3003,2990,2970,2991,2977,2975,3006,2972,2992,3003,2962,2992,2967,2978,2967,2995,2961,2987,2970,2973,2999,2985,2983,2991,2980,2979,2991,2995,2983,2981,2974,2975,2980,2970,2989,2976,2987,2982,2960,2999,3002,2993,2953,3003,3005,2996,2977,2983,2957,3008,2987,2982,2993,3008,2955,3003,2959,2991,2992,2951,2995,0
2969,2955,2999,2947,2999,2976,2979,2976,2992,2969,3009,2962,2981,2991,2965,2975,2981,2948,2997,2983,2992,2975,2977,2976,2990,2966,2969,2983,2996,2982,2983,2975,2960,2999,2990,2960,2990,2973,2974,2978,2994,2987,2988,2991,3023,2954,2958,2995,2970,2990,2990,2983,3006,2992,2999,2986,2977,2985,2989,2969,2991,2967,2977,2974,2965,3002,2959,2991,2959,3006,2990,2970,2953,2993,2977,2999,2978,2979,2990,2980,2969,2992,2989,2963,2971,2955,2983,2993,2994,2974,2975,2979,2965,2991,2970,2989,2981,3008,2982,0
2961,2974,2989,2986,2960,2991,2957,3003,2993,2981,2976,2991,2982,2965,2997,2959,3003,2960,2995,2966,2995,2956,2995,2975,2982,2975,2979,2981,2985,2969,2992,2953,2967,2992,2944,3005,2962,2963,2992,2960,2982,2989,2977,2998,2960,2995,2972,2969,2995,2978,2965,2960,2965,2974,2993,2992,2971,3011,2955,2990,2992,2989,2981,2962,2960,2982,3010,2959,2981,3014,2977,2995,2958,2991,2975,2992,2991,2955,2991,2985,2992,2992,2963,2998,2961,2999,2986,2971,2989,2991,2985,2966,2993,2987,2980,2989,2991,2992,2992,0
2989,3013,2981,3003,2953,2962,2988,2993,2962,2995,2992,2964,2992,2986,2946,2999,2970,2973,2985,2958,2999,2975,2992,2988,2972,2960,2985,2986,2992,2979,2974,2992,3003,2992,3005,2960,3010,2959,2970,2987,2977,2974,2971,3003,2964,3003,2992,3002,2973,2975,2982,2983,3008,2957,2991,2972,2961,2947,2999,2981,2992,2987,2994,2992,2979,2988,2961,2965,2992,2969,2989,2976,2994,2965,2992,2971,2997,2977,2992,3002,2969,2999,2973,3002,3005,2967,2990,2983,2992,2999,2960,2991,2960,2963,2992,2956,3013,2973,2991,0
2978,2999,2984,2979,2977,2969,2977,2983,2979,2966,2992,2991,2997,2995,2978,3002,2966,3008,2964,2971,3010,2992,2983,3003,2966,2995,2960,2997,2999,2954,3003,2959,2987,2974,2999,2974,2981,2960,3019,2960,2983,2989,2961,2986,2974,2987,3010,2962,2992,2960,2990,2973,2983,2980,2971,2995,3008,2974,2993,2995,2966,2979,2992,2895,2939,2979,2990,2960,2960,2976,2982,2987,3008,2957,3003,2971,2992,2960,3003,2974,2991,2999,2959,2973,3008,2960,3003,2971,3003,2995,2960,2972,2973,2976,2979,2960,2999,2981,2955,0
2997,2961,2995,2960,2983,2991,2979,2970,2979,2990,2975,2967,2960,2966,2991,2999,2999,2963,2980,2995,2987,2960,2964,2998,2961,2992,2955,2987,2962,2987,2992,2948,2987,2963,2959,3003,2962,2985,2992,2949,2983,2995,2975,2965,3005,2993,3003,2977,3011,2960,2995,2969,2965,2974,3011,2991,2983,2975,2986,2991,2983,2992,2966,2994,2981,2992,2992,2967,2999,2972,2983,2966,2960,2997,2948,2997,2989,2971,2967,3010,2962,2993,2971,3003,2960,2998,2951,2977,2966,2974,2981,2962,2995,2970,2987,2976,2992,2987,2965,0
2989,2982,2965,2992,2967,2986,3006,2966,2990,2963,2996,2960,3002,2992,2961,2977,2977,2959,2999,2965,2974,3011,3007,2960,3008,2991,2971,2989,2987,2960,2987,2967,2991,2960,2995,2973,2991,2960,2960,3007,2957,2960,2993,3015,2973,2973,3006,2967,2983,2991,3001,2998,3008,2981,2977,3007,2960,2995,3006,2976,3005,2990,2966,2997,2956,2999,2992,2961,3009,2966,3009,2960,2977,2983,2987,2982,2993,2960,2955,3014,2961,2996,2954,2989,2992,2978,2977,2999,2982,2979,2989,3011,2964,2979,2999,2965,2977,2960,2992,0
2999,2969,2986,3001,2987,2991,2992,2990,2987,2961,3003,2961,2992,2979,2975,2995,2989,2992,2961,2973,2992,2993,2978,2961,2987,2971,2985,2991,2971,2969,2993,2992,2976,2961,2996,2962,2995,2982,2969,2971,3007,2973,2969,2987,2999,2988,2960,2999,2960,3007,3003,2974,3008,2991,2985,2992,2956,2992,2993,2958,2975,2978,2961,3006,2997,2975,2999,2992,2982,3010,2970,2987,2990,2973,2992,2966,2995,2980,2957,2960,2971,2967,3008,2965,2983,2954,3011,2987,2982,2963,2994,2964,2987,3002,2989,2960,3003,2971,2999,0
2971,2975,2963,2974,2987,2987,2963,3003,2960,2993,2990,2985,3038,3067,2942,2994,2958,3008,2960,2992,2985,2965,2980,2977,2970,3007,2955,2995,2969,2973,2958,2987,2966,2992,2973,2985,2979,3003,2982,2992,2982,3002,2949,2999,2959,3005,2960,2990,2975,2971,2996,2960,2999,2999,2970,3014,2960,2992,2979,2986,2981,2967,2998,2980,3003,2959,2985,2954,2959,2990,2949,2992,2956,2990,2950,2995,2991,2966,2979,2989,3007,2974,2974,2968,2999,2960,2997,2991,2977,2961,2963,2966,2957,2981,2998,2960,2992,2948,2998,0
2982,2982,2987,2976,2963,2994,2961,2993,2976,2985,2983,2999,2982,2983,3007,2973,3014,2978,3008,2958,2965,2992,2996,2971,2971,2999,2981,2953,2999,2960,2993,2977,2995,2967,2960,2999,2985,2967,2991,2983,2970,2994,2982,2987,2991,2961,2960,2962,2963,2983,2960,2975,2977,2975,2951,3011,2955,2992,2992,2971,2968,2983,2973,2992,2963,2987,2975,2974,2969,2983,2965,2987,2987,2982,2969,2983,2971,3005,2974,2981,3003,2954,2999,2962,2987,2973,2969,2991,2973,2969,3007,2974,2992,2954,2993,2980,2994,2985,2987,0
2985,2998,2960,2991,2988,2976,3009,2976,2993,2993,2973,2982,2987,3006,2978,3014,2992,2957,3003,2977,3019,2987,2978,2997,2975,2997,2981,2958,2999,2978,2999,2983,2971,3006,2966,2970,2974,2983,2990,2977,2993,2987,3011,2946,2987,2987,2973,3022,2983,2985,2960,2997,2992,2949,2945,2992,2992,2970,2989,2965,2993,2975,2988,2975,2992,3009,2941,3007,2960,2988,2959,3001,2969,2979,2992,2977,2990,2996,3008,2961,2999,2976,2992,2951,2995,2971,2990,2971,2997,2974,2960,2991,2973,3015,2960,3006,2999,2963,2960,0
2985,2965,3007,2967,2965,3003,2985,2961,3011,2985,2983,2988,2992,3013,2978,2969,3003,2974,2963,3001,3006,2991,2990,2975,2981,3003,2969,2983,2974,2971,2960,2982,2985,2975,2987,2975,2989,2983,2963,3012,2960,2953,2983,2989,2949,2996,2976,2959,2999,2962,3006,2962,3011,2961,2986,2991,3002,2951,2959,2992,2999,2970,2964,3008,2969,2999,2954,2992,2991,2971,2973,3002,2980,2989,2972,2966,2991,2949,2992,2949,2989,2969,2960,2958,2960,2959,2986,2971,2992,2960,2992,2969,2991,3001,2960,2977,3006,2960,2992,0
3015,2967,3008,2960,2992,2976,2971,3008,2957,3005,2999,2998,2961,2971,2966,2967,2992,2960,3003,2958,2991,3015,2991,2969,2992,2972,3003,2943,3005,2989,2986,2995,2966,2990,2992,2959,2969,2968,2935,3015,2881,2991,2960,2992,2992,2959,2992,2966,2983,2989,2960,2992,2997,2960,2957,2967,2974,2994,2993,2960,3003,3003,3010,2949,2987,2941,2960,2979,2980,2991,2967,2995,2955,2999,2962,2949,2993,2979,2999,2971,3010,2964,2983,2991,2973,2954,2991,2992,2966,3019,3014,2945,2972,2974,2974,2991,2961,2987,2979,0
2957,2985,2993,2959,3011,3007,2948,3011,2970,2992,2989,2961,3005,2988,2960,2980,2949,3008,2960,2977,2975,2982,2995,2960,2979,2979,2985,2990,2978,2996,2992,2995,2970,2995,2976,2983,2980,2995,2958,3006,2992,2976,3015,2960,3006,2969,3003,2989,2993,2991,2981,2995,2986,2986,2989,2978,2981,3007,2960,2966,2967,2925,2995,2956,2993,2989,2989,2971,3006,2979,2971,2974,2973,2992,2974,2979,2989,2975,2983,2992,2968,2962,2992,2956,2974,2993,2991,2979,2999,2963,2981,2968,2992,2961,2993,2967,2989,2992,2986,0
2993,2993,2977,2995,2967,2997,2979,2977,2991,2965,2992,2982,2967,2991,2999,2953,2970,3013,2960,2982,2992,2969,2971,2989,2957,2992,2995,2961,2991,2960,3003,2963,2992,2992,2972,3009,2974,2981,2999,2955,3007,2949,2990,2997,2953,2999,2963,2979,2992,2984,2973,3003,2993,2999,2980,3003,3002,2960,2989,2964,3019,2960,2987,2997,2987,2996,2989,2992,2961,2999,2964,2986,2979,2991,2967,2975,2992,2974,2977,2999,2979,2997,2992,2969,3005,2990,2997,3006,2962,2973,2975,2975,2977,2977,2970,2983,2991,2953,3011,0
2975,2971,2965,2978,2989,2986,2993,2983,2954,2999,2962,2991,2981,2960,3002,2990,2997,2982,2993,2965,3002,2977,2976,2991,2961,2999,2956,3007,2989,2976,2978,3003,2994,2993,2958,3001,2977,2993,2975,2975,2977,3003,2951,3002,3002,2972,3007,2960,2995,2973,2967,2966,3002,2967,2995,2978,2966,2994,2995,3002,2975,3003,2989,2965,2983,2983,2991,3002,2975,2991,2982,2965,2993,2992,2972,2993,2991,2966,2999,2970,2982,2977,2960,2970,2973,2976,2960,2999,2979,2996,2960,3006,2970,2960,3023,2970,2958,2992,2965,0
2969,2979,2958,2992,2960,2994,2972,2971,3013,2989,2999,2989,2991,2948,2992,2973,3007,2960,2979,2999,2971,2987,2995,2971,2970,2972,2989,2998,2973,3002,2992,2993,2964,2989,2965,2981,2987,3003,2960,2956,2960,2999,2945,2965,2983,3005,3009,2961,3008,3005,2953,2990,2992,2955,2952,2987,2961,2974,2974,2982,2992,2977,2970,2986,2972,2957,2977,2971,2981,2991,2965,2990,2964,2987,2983,3018,2952,2995,2969,3003,2970,2960,2992,2960,2992,2971,2986,2982,2979,2977,2986,2975,2960,2990,2965,2975,2969,2960,2992,0
2960,2999,2994,2962,2990,2934,2949,2992,2948,2989,2965,2975,2973,2991,2980,2971,2979,2998,2976,3007,2963,2971,3011,2965,2977,2960,2995,3008,2966,3010,2960,2982,2957,2963,2993,2970,2961,2997,2968,2974,2955,2986,2975,2987,2987,2976,2973,2981,2992,2977,2991,2979,2978,2997,2958,2997,2949,3009,2965,2996,3004,2959,2967,3008,2975,2983,2950,2990,2967,2994,2983,2981,2999,2989,3009,2958,2987,2983,2991,2982,2978,2983,2999,2975,2989,2953,2993,2974,3006,3003,2963,2993,2969,2987,2981,2971,3003,2983,2997,0
2983,2994,2962,2982,2989,2962,2979,2963,2993,2973,2976,2964,2969,2975,2982,2993,2965,3007,2987,2973,3014,2961,2992,2979,2956,2977,2997,3002,2969,3002,2959,2998,2977,2995,3007,2979,2994,2978,2982,2993,2978,2993,2962,2960,3006,2973,3010,2953,3005,2992,2960,3004,2992,2997,2969,2965,2982,2960,2991,2960,2997,2992,2962,2992,2975,2985,3004,2969,2974,2959,2986,2992,2967,2990,2963,2996,2951,2991,3007,2977,2977,2993,2995,2969,2979,2971,2979,2982,2960,2990,2975,2961,2982,2955,2992,2990,2975,2988,2992,0
2977,3008,2967,3007,2969,2979,2991,2993,2979,2992,2961,3009,2991,2991,2993,2977,2989,2964,2975,2983,2999,2992,2981,2958,2993,2958,3007,2999,2976,3005,2960,2975,2945,2985,2959,2982,2971,3014,2970,2983,2995,2976,2966,2965,2997,2989,3006,2953,2977,2983,2951,2995,2977,2992,2992,2970,2986,2960,2986,2983,2977,2989,2983,2971,3023,2944,2979,2992,2970,3015,2990,2961,2950,2992,2975,2979,2993,2969,2992,2993,2975,2999,2960,2994,2992,2998,2957,2993,2981,3001,2969,2989,2986,2987,2975,3005,2977,2977,2967,0
2991,2990,3008,2982,3005,2951,2987,2989,2972,2973,2973,2975,3007,2979,2995,3007,2974,2992,2959,2978,2991,2971,2996,3007,2970,3005,2945,2999,2966,3002,2975,2990,2963,2992,2984,2947,2993,2959,2955,2960,2982,2960,2978,2999,2981,2973,2971,2994,2961,3011,2945,3007,2997,2960,2992,2970,2962,2991,2960,2992,2953,2992,2977,2969,2960,2987,2993,2993,2995,2988,2951,2970,2983,2992,2960,3008,2960,2989,2960,2997,2991,2992,2981,2987,2979,2960,2961,2969,2973,2970,3006,2998,2986,2955,2971,2997,2975,2943,2958,0
2973,2956,2995,2963,2999,2953,2983,2963,2960,2998,2992,2992,2992,2950,3001,2999,2969,2986,2971,3011,2993,2966,2977,3003,2949,2992,2963,2991,2987,2993,2943,2973,2955,2986,2957,3018,2958,2990,2978,2960,2983,2960,2992,2963,3009,2954,2992,2983,2990,2983,2960,2971,2999,2957,2990,2974,2995,2974,2961,2979,2987,2963,2994,2957,3003,2968,2995,2963,2962,3003,2980,2999,2981,3011,2963,2991,2960,3003,2960,2991,2957,3007,2987,2983,2982,2983,2990,2991,2966,2960,2997,3004,2963,2999,2957,2978,2965,2977,2989,0
2998,2991,2949,3019,2950,3007,2975,2964,2962,2960,2947,2970,2963,2991,2976,2992,2960,2963,2989,3008,2958,2969,2995,2975,2990,3008,2960,3005,2971,2963,2995,2972,2989,2970,2999,2961,2964,2976,2992,2961,3007,2963,2991,2956,2992,2971,2993,2979,2992,2979,2990,2965,3011,2960,2987,2995,2980,2971,2996,2973,2996,2961,2992,2992,2999,2959,3007,2978,2997,2983,2995,2970,2958,2992,2967,3006,2969,2965,2992,2970,2980,3003,2985,3008,2965,2987,2978,2965,2974,3002,2949,2997,2960,2995,2960,2992,2952,2986,2980,0
2993,2958,2983,2987,2952,2967,2989,2985,2971,2998,2964,2992,2978,2993,2962,2991,3019,2992,3007,2986,2981,2991,2995,2985,2983,2965,2998,2954,2960,3007,2960,2978,2980,2990,2978,2995,2973,2993,2966,2982,2988,2978,3005,2957,2992,2958,3002,2983,3005,2959,2995,2960,2992,2965,3006,2960,2983,3003,2975,2973,2973,2997,2960,2999,2960,2969,2964,2997,2995,2960,3010,2960,2960,2963,2983,2961,2994,2971,2988,2963,2974,2966,2999,2960,2960,2992,2995,2967,2991,2970,2975,2998,2983,2975,2956,2972,2974,2965,2994,0
2949,3010,2962,2953,2996,2949,2992,2960,2987,2983,2960,2972,2986,2965,3010,2967,2958,3002,2980,2999,2968,2960,3004,2973,2962,2967,2959,2973,2962,2992,3003,2964,3001,2965,2993,2957,2991,2992,2978,2960,2991,2962,2992,2957,2995,2958,3006,2971,2961,2998,2963,2969,2993,3013,2964,2998,2965,3003,2971,2992,2998,2965,2993,2967,3009,2979,2950,2992,3007,2961,3003,2974,3007,3010,2984,2970,2995,2972,3003,2978,2983,2978,2995,2960,3055,2971,3003,2965,3001,2945,2991,2961,3002,2979,2973,2971,2951,2992,2959,0
2994,2956,2977,2974,2983,2969,2999,2964,3009,3009,2992,2953,3013,2975,2963,2980,2997,2965,2994,2962,2969,2998,2982,2987,2960,2992,2993,2972,2997,2980,2999,2972,2982,2958,3001,2954,3005,2957,2983,2987,2960,2991,2962,2962,2992,2991,2975,2989,2965,2987,2966,2977,2991,2982,2968,3007,2952,3006,2967,2990,2974,2999,2959,2999,2971,2981,2965,2992,2990,2961,3006,2977,2992,3009,2968,2959,2992,2960,2982,2977,2994,2992,2975,2987,2956,2960,2981,2999,2992,2974,2992,2979,2999,2960,2987,2989,2959,3003,2993,0
2975,3010,2960,2983,2983,2999,2953,3005,2974,2993,2999,2960,2978,2986,2995,2960,2997,2968,2973,2983,2965,2979,2975,2991,2989,2987,2987,2957,2999,2996,2994,3008,2966,2995,2974,2978,2975,2991,2980,2973,2963,2979,2960,2957,2992,2983,2979,2992,2960,2997,2970,3021,2983,2961,2992,2987,2993,2996,2993,2994,2963,2971,2980,2974,2997,2974,2989,2971,2967,3011,2967,3013,2991,2965,2996,2993,2969,2993,2962,3005,2953,2999,3006,2976,2992,2985,2961,2990,2966,2980,2955,2986,2970,2993,2957,2987,2971,2997,2994,0
2987,2960,2986,2989,2989,2979,2990,2991,2992,2975,2966,2990,2969,2987,2976,2979,2966,2975,2980,2952,2992,2983,2992,2997,2951,2994,2978,3006,2987,2967,2981,2964,2979,2981,2979,2992,2992,2994,2991,2991,2997,2970,2960,2989,2966,3002,2959,2990,2995,2986,2979,3006,2986,2957,2991,2994,2967,2981,2954,3009,2961,2962,2992,2974,2971,2997,2973,3007,2957,2993,2972,2975,2992,2977,2976,2992,2992,2969,2975,2994,2982,2995,3007,2962,2992,2967,2971,2975,2991,2958,2999,2965,2971,2992,2988,3007,2965,2979,2983,0
2978,2994,2995,2985,2964,2994,2972,2992,2970,2998,2964,2979,2985,2995,2991,2971,2992,2987,2983,2965,2989,2970,2988,2971,3006,2960,2991,2969,3003,2983,2978,2991,2960,2989,2983,2960,2967,2990,2975,2995,2958,2981,3009,2981,3005,3018,2967,3019,2962,2991,2961,2993,2960,2993,2983,2996,3012,2969,2952,2999,2960,3001,2988,2975,3017,2968,2998,2974,2979,2998,2990,2966,2983,2978,2960,2998,2944,2999,3005,2975,2976,2972,2992,2981,3017,2981,2990,2957,2986,2988,2955,2958,2997,2974,2989,2994,2967,2975,2991,0
2960,2987,2962,2990,2975,3005,2983,3008,2960,2961,2938,3010,2976,2983,2973,2967,3004,2970,2989,2979,2940,2997,2965,3006,2989,2957,2982,2986,2965,3006,2975,2960,2992,2982,2961,2990,2983,2974,2999,2946,2963,2969,2982,2953,2997,2993,2961,2965,3008,2950,2975,2965,2999,2975,2960,2962,2974,2989,3005,2962,2960,2992,2955,3003,2968,2992,2998,2999,2997,2997,2975,2993,2963,2960,2983,3007,2997,2967,2965,2991,2966,2995,3008,2972,2987,2967,2983,2974,2983,2981,2998,2983,2993,3009,2960,2981,2975,2992,2969,0
2991,2965,2987,2992,2980,2999,2965,2993,2962,2987,2974,2967,2975,2960,2987,2979,2960,2995,2975,2977,2971,2995,2977,2975,2963,2975,2999,3008,2977,3011,2967,3003,2970,2988,2960,2973,2992,2983,2978,2979,2987,2975,2985,2992,2992,2982,2993,2972,2968,3003,2977,2977,2995,2989,2979,2999,2991,2947,2995,2970,2982,2987,2981,2983,2969,2962,2990,2955,2999,2971,2994,2965,2968,2983,2953,2992,2979,2993,2964,2992,2975,2999,2980,2960,2999,3004,2950,3005,2973,2995,2998,2975,2978,2981,2993,2990,2957,2995,3001,0
2987,2975,3010,2972,2997,2980,2963,2966,2992,2996,2966,2986,2992,2960,2993,2991,2963,3007,2977,2993,2991,2995,2994,2961,3011,2953,2975,2973,2963,2998,2967,2987,3003,2979,2955,2987,2979,2979,2976,2994,2964,3007,3003,2960,2974,2992,2981,2992,2981,2997,2967,2981,2980,2989,3003,2960,2989,2980,3008,2988,2992,2995,2971,2961,2998,2960,3003,2962,2986,2970,2999,3003,2960,2983,2981,2991,2975,2995,2963,2982,2975,2989,2979,2995,2976,2995,2960,2995,2989,2995,2996,2960,2967,2965,2992,2961,2999,2979,2971,0
3008,2993,2960,2982,2960,3009,3003,2975,3008,3002,2992,2981,2994,2977,2978,2994,2967,2995,2962,2994,2954,2997,2992,2963,3003,2965,2995,2962,3003,2982,2991,2981,2993,2998,2981,2960,2974,3006,2990,2965,3019,2963,2976,2965,3007,2977,2998,2957,2993,2957,2971,2988,2998,2974,2979,2992,2986,2990,3005,2992,2971,2983,2974,2997,2963,2999,2971,3002,2960,2997,2960,2995,3007,2961,3007,2945,2991,2960,2994,2963,2983,2991,2956,2993,3010,2975,2970,2993,2983,2973,2979,2989,2957,2999,2960,2983,2979,2986,2991,0
2969,2963,2973,3003,2983,2980,2979,2980,2962,2992,2965,3007,2992,2974,2978,2979,2992,2970,2990,2977,2973,2987,2974,2977,2992,2992,2966,2992,2981,2975,3007,2992,2969,3002,2977,2962,2962,2975,3002,2909,2964,2973,2978,2960,2991,2960,2988,2989,2999,2948,2973,3003,2983,2981,3013,2972,2982,2991,2943,2997,2964,2975,2998,2950,2976,2998,2992,2978,2974,2965,3006,2966,3002,2961,2973,2952,3002,2994,2969,2961,2978,2988,2982,2965,2975,2992,2969,3001,2960,2991,2995,2958,2960,2990,2999,2987,2987,2960,2992,0
2971,3003,2960,2989,2963,2971,2994,2959,2976,2985,2981,3008,2983,2979,2995,2986,2967,3008,2977,2987,2981,2998,2960,2982,2955,2993,2969,3007,2998,2962,3008,2979,3003,2999,2958,2995,2959,3010,2975,2993,2986,2970,2963,2961,2990,2994,2960,2998,2960,3001,2972,2999,2985,2993,3007,2974,2989,2982,2991,2983,2975,2990,2977,2983,2983,2981,3007,2983,2983,3003,2948,2994,2981,2972,2979,2977,2971,2985,3007,2947,2991,2981,2987,2997,2983,2962,2981,2965,2964,2985,2966,2992,2947,2964,3008,2983,2981,2989,2970,0
2960,2961,3003,2953,2992,2974,3009,2954,2995,2978,2983,2971,2986,2992,2973,2987,2974,2960,2992,2965,2999,2961,2999,2958,2989,2975,2998,2969,2997,3001,2973,2995,2991,2964,2992,2985,2951,2970,2992,3007,2957,2997,2979,2981,3007,2961,2976,2982,2950,3001,2991,2975,2978,2973,2993,2960,2982,2987,2951,2999,2983,2970,2988,2983,3008,2956,2957,2992,2967,2983,2992,2992,2975,2982,2992,2982,2982,2996,2991,2969,2994,2975,2992,2959,3003,2960,2993,2992,3008,2961,2999,2962,2961,2965,2988,2960,3005,2966,2973,0
2992,2998,2960,2989,2972,3007,2999,2960,2991,2966,3007,2974,2982,3005,2962,2997,2994,2977,2973,2991,2949,2971,2957,2983,2982,2997,2960,3007,2954,2991,2989,2960,2997,2998,2956,2979,2966,2989,2979,2973,2969,2969,2992,2961,2971,2987,2999,2945,2985,2982,2960,3007,2946,2960,3006,2991,2995,2988,2991,2998,2958,2989,2985,2970,2998,2981,2960,2983,2991,2961,3005,2973,2989,2955,2999,2961,2993,2971,3003,2978,2961,2989,2959,2960,2981,2989,2966,2999,2959,3007,2981,2971,2983,2965,2990,2992,2988,2974,2993,0
2969,3010,2964,3002,2981,2993,3011,2963,3003,2991,2956,2987,2985,2978,3002,2960,2951,2986,2991,2960,2991,2964,2995,2959,2949,2983,2993,2960,2995,2997,2960,3024,2950,2979,2960,2994,2960,2947,2960,2972,2960,2969,2973,2975,2960,2973,2983,2995,2997,2987,2969,2962,2989,2962,3011,2960,2981,2948,2963,2956,2998,2990,2976,2965,2983,2982,2958,2944,2998,2976,2970,2967,2999,2953,2958,2991,2962,2997,2951,2990,2970,2963,2992,2979,2974,2999,2960,2983,2999,2959,2998,2967,2998,2947,2948,2951,3005,2964,2982,0
2957,2965,3003,2989,2994,2979,2963,2990,2992,2997,2956,2996,2978,2999,2969,2969,2955,2960,2982,2994,2972,2973,2993,2970,2965,2999,2957,2999,2976,2992,2994,2957,2967,2995,2966,2965,2991,2971,2983,2967,2991,2960,3003,2964,2979,2979,2967,2995,2960,3007,2968,2988,2967,2960,2988,2962,3005,2959,3009,2961,2976,2960,2992,2970,2986,2978,2952,2997,2977,2981,2965,2994,2977,2979,2973,2981,2955,2993,2986,2958,2968,2997,2974,2976,2975,2969,2983,2969,2991,2977,3003,2989,2999,2963,2969,2965,2971,3008,2974,0
2965,2960,2966,2985,2998,2965,2978,2987,2960,2980,2975,2992,2986,2950,2999,2979,2995,2995,2963,2992,2960,2995,2983,2979,2965,2998,2990,2996,2960,3006,2960,2960,2983,2963,3006,2989,2979,2983,2977,2972,2967,2975,2992,2960,2994,2973,2978,2960,2975,2998,2982,2981,2976,2997,2973,2959,2999,2965,2983,2965,2987,2960,2974,2960,2992,2971,2993,2975,3003,2971,2999,2983,2992,2968,2966,3007,2960,2982,2957,2973,2982,2989,2983,2969,2979,3001,2969,3004,2974,2945,3008,2947,3022,2960,2974,2997,2992,2990,2969,0
2992,2999,2970,2986,2990,2989,2967,2961,2977,2980,2966,2978,2999,2964,3007,2972,3003,2961,2991,2958,2987,2959,2975,2993,2985,3010,2981,2966,2967,2983,2964,3003,2992,2997,2999,2997,2970,2960,2992,2970,2970,2993,2955,2979,2955,2994,2978,2998,2989,2992,2996,2976,2995,2977,2991,2999,2985,2978,2999,3007,2959,2979,2971,2965,2974,2999,2964,2975,2975,2960,3001,2982,2955,2992,2965,2978,2960,2981,2980,2977,2955,2981,2987,2961,2999,2963,2992,2975,2990,2992,2951,2995,2965,2951,3015,2949,2991,2994,2989,0
2975,2983,2999,2975,2977,2960,2992,2983,2991,2950,3007,2972,2934,3012,2989,3005,2992,3002,2964,2987,2988,2981,2978,2978,2979,2977,2988,2981,2954,3009,2983,2970,2961,2997,2961,2986,2970,2992,2960,2993,2974,2971,2987,2969,2991,2969,2979,2982,2990,3004,2958,2960,2959,2991,2971,2965,2991,2984,2972,3003,2979,2975,2989,2967,2979,2979,2954,2972,2979,2979,2992,2973,2969,2993,2986,2970,2992,2991,2999,2941,2971,3008,2953,2967,2993,2960,2992,2959,2991,2985,2971,2987,2965,2993,2998,2989,2992,2960,3003,0
2999,2978,2955,2990,2962,2982,3008,2956,2963,2982,2991,2961,3003,2992,2975,2988,2963,2975,2961,3003,2958,2997,2973,2995,2964,2990,2982,2960,2973,2971,2965,2992,2958,2992,2970,3002,2957,2963,3007,2992,2956,2992,2967,2995,2987,2949,2993,2965,2981,2986,2983,2992,2976,2986,2987,2992,2973,2959,2977,2991,2986,2967,2977,2965,3003,2971,2973,2982,3011,2963,2983,2975,2987,2975,2954,3008,2960,2997,2992,2960,2977,2998,2964,2999,2960,2992,2960,2989,2971,2970,2980,2993,2989,3014,2979,2967,2950,2985,2985,0
2995,3005,2973,2975,2976,2992,2996,3010,2970,2962,2971,2979,2975,2965,2989,2979,2983,2973,2983,2965,3010,2966,2989,2990,2983,2978,3010,2982,2983,2977,2997,2971,2995,2978,2962,3008,2972,2993,3001,2972,2977,2970,2971,2987,2958,3009,2963,2998,2949,2993,2985,2979,2997,2987,2995,2980,2995,2997,2962,2987,2955,3007,2962,3005,2955,3006,2975,2975,2978,2960,2963,2990,2961,2997,2987,2985,2973,3017,2956,2966,2975,3003,2965,3009,2989,2971,2987,2967,3008,2971,3011,2966,2975,2960,2986,2963,2977,2971,2992,0
2960,2987,2992,2989,2983,2977,2981,2962,2995,2960,2656,2960,3008,2947,2960,2992,2975,2991,2971,2993,2961,3007,2989,2992,2961,2997,2962,2995,2971,2964,2967,2973,2986,2998,2953,2993,2966,2979,2994,2960,2995,2960,2987,2986,2957,2982,2991,2985,2960,3009,2957,2971,2990,2991,2967,2993,2962,2966,2960,3008,2960,2992,2997,2960,2960,2993,2978,2971,2987,2972,2966,3006,2981,2987,2978,2971,3005,2976,2993,2960,2959,2955,2992,2962,2985,2999,2953,2965,2960,2972,2990,2962,2992,2997,2962,2967,2983,2975,2977,0
2973,2961,2979,2975,2992,2966,2992,2995,2969,2998,2979,2980,2999,2983,2962,2974,2992,2995,2965,2976,2992,2960,3003,2960,2995,2969,2974,2960,2977,2970,2990,2960,3006,2996,2975,2989,2960,2987,2992,2989,2974,2989,2960,2980,2987,2999,2986,2986,2973,2995,2960,2999,3015,2982,2993,2972,2976,2988,2991,2981,2993,2960,2986,2963,3008,2960,2995,2992,2989,2975,2978,2978,2956,2977,2960,2973,2995,2959,2992,2970,2992,2991,2965,2991,2987,2967,3008,2974,2999,2978,2975,2966,2980,2966,3003,2959,2980,2985,2998,0
2991,2966,2986,2995,2967,2979,2993,2977,2983,2957,2992,2989,2986,2995,2973,2983,2998,2973,2995,2983,2991,2963,2995,2966,2989,2982,2993,2970,2999,2976,2992,2972,2970,2977,2992,2989,3006,2992,2960,2994,2989,2970,2992,2989,2999,2986,2977,2994,2999,3005,2963,2992,2979,2972,2971,2993,2979,2992,2960,2967,2999,2967,2996,2995,2994,2976,2996,2958,2997,2999,2976,2979,2980,2973,2991,2990,2980,2983,2997,2975,2987,2992,2979,2960,2986,2974,2979,2983,2958,3002,2975,2998,3005,2998,2963,2979,2967,2994,2990,0
3003,2997,2997,2972,2998,2983,2961,2990,2961,2975,2989,2960,2963,2975,2969,2992,2971,2997,2967,3006,2987,2993,2977,2990,2958,3015,2983,2995,2968,2965,2992,2960,2998,2957,2995,3001,2989,2967,2992,2974,2992,2973,2982,2986,2963,2999,2960,3006,2975,2961,2992,2965,2982,2971,2983,2975,2987,2991,2970,2993,2973,2979,2960,2989,2991,2978,2995,2967,2992,2980,2992,2976,2998,2944,2999,2987,2992,2961,2985,2973,2960,2965,2992,2986,2977,2972,2993,2990,2975,2965,2947,2966,2993,2998,2964,2995,2979,3003,2966,0
2999,2945,2976,2991,2989,2991,2980,2992,2983,2983,2981,2962,2961,2975,3001,2972,2992,2977,2966,2993,2957,3005,2962,2987,2975,2997,2960,2960,2995,2960,2997,2965,2982,2971,2945,2972,2955,2960,2978,2979,2979,2992,2991,2983,2964,2991,2972,2981,2964,2975,2998,2981,2971,2957,2979,2971,2969,2992,2956,2992,2966,2990,2975,2969,2960,2999,2961,2969,2980,3002,2987,2992,2992,2999,2951,2970,2991,2969,2987,2987,2982,2987,2996,2963,2960,3003,2957,2968,2961,2983,2973,3003,2959,2973,2995,2989,3006,2999,2985,0
3006,2949,2998,2979,2970,2961,2991,2992,2983,2983,2966,2995,2966,2974,2971,2973,2994,2987,2951,2975,2959,3006,3008,2965,3003,2981,2992,2999,2960,2999,3001,2987,3007,2991,2960,2981,2990,2978,2986,2987,2965,2998,2987,2987,2997,2959,2983,2992,3003,2979,2971,2991,2976,2976,2998,2973,2995,2961,2963,2998,2957,2996,2981,2982,2960,2971,2977,2959,2976,2959,2977,3008,2960,2981,2960,2990,2960,2960,2989,2958,2990,2960,2983,2973,2969,2967,3008,2980,2995,2965,2991,2960,2971,2975,3005,2992,2978,2971,2987,0
2975,2999,2991,2960,2989,2990,2967,2978,2983,2957,2993,2962,2990,2977,2981,2992,2991,2971,2992,2949,2995,2970,2987,2991,2977,2985,2977,2963,2973,2987,2965,3003,2969,2991,2962,2977,2976,2960,2992,2974,2974,2971,2987,3003,2986,2978,2992,2978,2974,2993,3003,2983,2960,2997,2974,2996,2985,2969,2987,2958,2992,2966,2982,2957,3002,2987,2994,2954,2991,2963,2991,2971,2992,2974,2974,2978,2991,2979,2974,2986,3002,2970,2993,2993,2988,2989,2997,2963,2991,2993,2989,2966,2963,2979,2994,2996,2953,2992,2962,0
2996,2960,2994,2979,2997,2943,2987,2977,2997,3007,3005,2991,2973,3002,2960,2962,2990,2965,3013,2953,2999,2997,2974,2990,2965,2992,2992,2987,2999,2975,2997,2989,2976,2974,2976,2964,3022,2997,2968,2995,2956,3007,2982,3006,2992,2950,2960,2994,3006,2960,2982,2993,2973,2975,2981,2992,3001,2713,2980,2966,2991,2971,2960,2987,2971,2992,2953,2991,2938,2989,2978,2972,2983,2969,2979,2967,2963,2992,2975,3005,2940,2999,2945,2987,2975,2960,2979,2983,2992,2949,2979,2953,2979,2999,2960,2993,2990,2963,2965,0
2970,2977,2991,2961,2992,2943,2991,2967,2956,2979,2979,2991,2967,2995,2971,2982,2991,2965,2999,2977,2985,2973,2969,2995,2983,2969,3014,2999,2961,2957,2995,2958,2992,2981,2962,2967,2992,2967,2964,2995,2961,2973,2975,2989,2991,2978,2979,2992,2985,2949,2995,2962,2960,2989,2977,2990,2979,2979,2992,2989,2974,2988,2992,2996,2967,3007,2993,2971,2995,2967,2992,2988,3010,2963,2987,2955,2992,2957,2993,2962,2985,2970,2986,2969,2993,2999,2957,3006,2960,2987,2987,2995,2967,2976,2981,2991,2985,2991,2989,0
3002,2979,2979,2960,2987,2994,2959,2983,2983,2992,2958,2995,2967,2986,2958,2993,2967,2979,2993,2988,3002,2992,2958,2994,2998,2976,3008,2970,3011,2977,3005,2963,2987,2992,2965,2978,2960,2992,2990,2975,2977,2982,2982,2960,2992,2989,2961,2997,2979,2964,2970,2986,2959,2967,2999,2990,2978,2983,2969,2977,2965,3005,2946,2992,2989,2991,2968,2986,2983,2975,2966,2963,2989,2985,2995,2982,2987,2978,2986,2967,2992,3011,2966,3005,2963,2998,2993,2981,2995,2962,2992,2971,2988,2960,2993,2991,2994,2967,2992,0
2997,2987,2987,2991,2994,2986,3001,2965,2987,2991,2996,2993,2979,3005,2960,2992,2992,2994,2991,2971,2970,3005,2971,2971,2975,2960,3006,2960,2993,2985,2965,2991,2958,2985,2992,2961,2971,2965,2969,2977,2986,2977,2992,2965,2977,2981,2973,2999,2972,2943,2946,2989,2967,2999,2991,2981,2983,2968,2974,2971,2993,2971,2983,2964,2999,2977,2960,2974,2965,2989,2972,3007,2960,2995,3023,2962,3010,2975,3005,3006,3005,2990,2966,2991,2981,2983,2982,2974,2975,2985,2957,2986,2959,2992,2947,2973,3003,2953,3008,0
2990,2961,2999,2990,2965,2986,2974,2953,2989,2991,2960,2982,2973,2987,2967,2990,2978,2992,2974,2993,2977,2971,2980,2993,2972,2992,3005,2961,2991,2960,2975,2974,2939,2995,2994,2942,2999,2963,2977,2999,2970,2993,2963,2972,2959,2964,2960,2995,2960,2997,2949,2979,2994,2983,2956,2992,2960,3003,2981,2960,2991,2997,2960,2992,2949,2995,2963,2996,2973,2976,2966,2993,2978,2960,2993,2989,3003,3003,2961,2991,2991,2979,2973,3003,2986,3007,2985,2994,2982,2963,2992,2981,2971,2992,2960,2992,2998,2953,2982,0
3002,2970,2974,2974,2966,2979,2967,2987,2977,3003,2958,2995,3005,2974,2999,2962,3002,2969,2990,2998,2992,2976,2966,2981,2989,2963,2978,3006,2997,2990,2966,2960,2993,2958,2960,2997,2969,2963,2971,2993,2977,2997,2965,2992,2960,2973,2997,2970,2981,2981,2972,2979,2995,2978,3003,2973,2987,2994,2985,2979,2973,2992,2970,2961,2975,2993,2987,2960,3005,2955,3002,2975,2986,2985,2990,2987,2979,2971,2950,2957,2991,2957,2994,2971,2965,2998,2965,2992,2971,3009,2971,2985,2999,2990,2952,3005,2970,3010,2974,0
2975,2983,2992,2976,3001,2971,2973,3008,3010,2963,2995,2978,2960,2994,2966,2990,2962,2960,2949,2966,2979,2971,2980,2984,2991,2989,2987,2975,2994,3010,2962,3008,2969,2983,2986,2977,2976,2978,2983,2956,2991,2960,2973,2972,2957,2996,2963,2990,2981,2973,2992,2985,2992,2979,2974,3003,2983,2960,2975,3002,2965,3005,2967,2973,2993,2981,2976,2989,2978,2995,2992,2965,2999,2982,2992,2961,3002,2995,2969,2994,2975,2997,2960,2999,2963,2992,2969,2971,2967,2978,2974,2977,2973,2986,2973,2987,2963,2992,2998,0
2973,2960,2991,2967,2993,2967,3008,2998,2971,2962,2995,2962,2992,2990,2973,2986,2983,2972,2971,2994,2964,2977,2964,2985,2981,2990,2964,2992,2977,2962,2989,2965,3006,2960,2993,2987,2989,2965,2967,2977,2979,2975,3002,2954,2999,2969,3005,2951,2991,2965,2962,2989,2977,2989,2976,2960,2999,2992,2981,3003,2960,2975,2992,2991,2960,2971,2973,2967,2995,2960,2983,2990,2975,2982,2967,2989,2988,2967,2960,2977,2964,2992,2960,2987,2992,2985,2977,2987,2967,2981,2965,2980,2992,2974,2979,2973,2977,2976,2990,0
2969,2989,2992,2978,2991,2974,2993,2966,2977,2991,2990,2948,3009,2957,2977,3007,2979,2992,2978,2979,2980,3008,2979,2994,2961,2969,2943,3001,2958,2969,2999,2979,2981,2982,2977,2991,2945,2973,3004,2954,3013,2965,2954,2994,2967,2973,2994,2960,2999,2970,2987,2992,2973,2992,2964,2960,2943,2991,3003,2982,2962,2992,2966,3002,2992,2961,2973,2977,2972,2960,2991,2954,2989,2967,2979,2998,2963,2987,2994,2959,3005,2980,2992,2991,2999,2960,2973,3003,2978,2989,2988,2961,2960,2967,3006,2959,2979,2975,2999,0
2962,2991,2961,2977,2989,2992,2993,2957,2997,2994,2987,2961,3003,2999,2975,2982,2977,2992,2969,2995,2986,2971,2993,2983,2957,2994,2969,2999,2967,2975,3005,2987,3001,2990,2990,2966,3003,2960,2967,2977,2993,2965,2981,2963,2971,2971,2992,2992,2960,3003,2969,2963,2964,2991,2987,2983,2992,2960,3012,2982,2979,2992,2964,2994,2979,2991,2975,2960,2975,2983,2968,3008,2960,2966,2975,2988,2965,2986,2969,2956,2968,2960,3003,2990,3003,2971,2978,2988,2971,2990,2995,2979,2975,3005,2980,2979,2986,2965,3010,0
2980,2965,2991,2994,2982,2978,2976,2977,2970,2975,2996,2974,2979,2961,2999,2964,3011,2959,2965,2979,2991,2959,2987,2961,2995,2986,2993,2967,3009,2960,2999,2988,2991,2951,2963,2978,2991,2974,2986,2971,2978,2986,2990,2974,2975,3003,2964,2954,2999,2973,2992,2977,2993,2999,2971,2981,2992,2992,2995,2980,2966,2992,2962,2998,2965,2991,2992,2991,2974,3003,3007,2968,2960,2992,2995,2992,2999,2992,2986,2979,2969,2992,2971,2990,2992,2960,2992,2962,2979,2960,3009,2972,2953,2985,2979,2983,2987,3007,2959,0
2997,2961,2973,3009,2973,2978,2995,2989,2983,2995,2980,2992,2974,3002,3010,2961,3008,2975,2998,3002,2970,2996,2967,2973,2979,2977,2979,2981,2985,3008,2955,2994,2953,2981,2987,2998,2983,2974,2980,2974,2976,2969,3001,2998,2962,2999,2964,3003,2987,3008,2963,2949,2991,2998,3008,2973,2960,2979,2975,2963,2991,2960,2962,2999,2945,2994,2975,2960,3007,2959,2992,2975,2978,2961,2978,2977,2987,2986,2961,3003,2975,2995,3003,2987,2973,2961,2997,2987,2981,2974,2967,2959,2989,2969,2997,2972,2956,2975,2993,0
2987,2978,2972,3008,2997,3007,2986,2983,3009,2962,2982,2963,2979,2977,2975,2960,2975,2993,2966,3003,2943,2987,2957,2992,2973,2981,2991,2967,3002,2958,2943,3007,2987,2955,2974,2992,2988,2982,2979,2986,2979,3001,2973,2960,2966,2979,2992,2952,3010,2951,2979,2964,3015,2981,2992,2971,2992,2965,2983,2989,2962,2975,3006,2993,2970,2988,2950,3003,2943,2966,2992,2992,2965,2992,2971,2971,2991,2966,2961,2992,2993,2981,2969,2999,2972,2991,2978,2994,2978,2981,2963,2971,3006,2965,2993,2994,2971,2964,2969,0
2981,2990,2966,2992,2971,2983,2990,2965,2993,2988,2975,2950,2999,2960,2997,2961,2979,2982,2948,2979,2977,2995,2976,2975,2956,2960,2993,2972,2992,2983,2974,2977,2991,2982,2963,2992,2958,2992,2992,2980,3007,2980,2973,2998,2966,2999,2951,3007,2989,2969,2971,2974,2961,2994,2960,2995,2961,2978,2960,2989,2961,2995,2961,2991,2983,2967,2992,2999,2955,2977,2994,2960,2987,2977,2987,2992,2991,2999,2962,3006,2967,2979,2983,2992,2983,2967,2971,2994,2958,2997,2961,2992,2963,2974,2985,2961,2959,2982,2960,0
2985,2954,2995,2966,2967,2993,2975,2970,2978,2961,2991,2977,2976,2992,2971,3002,2973,3003,2972,2987,2962,2983,2975,2993,2971,2987,2960,3008,2981,2973,2981,2974,2990,2972,2991,2969,2973,2978,2959,2988,2975,2981,2990,2960,2980,2970,2975,2978,2991,2969,2999,2987,2963,2994,2965,2994,2974,2962,2976,2992,2967,2981,2983,2991,2960,2982,2987,2970,2987,2993,2956,3021,2992,2991,2970,2979,2964,2977,2993,2979,2960,2992,2967,2966,2963,2993,2960,2999,2979,2999,2981,2986,2993,2980,2983,2999,2969,2964,2971,0
2969,2993,2960,2991,2992,2977,2974,2993,2960,2991,2957,2991,2992,2975,2983,2962,2985,2990,2977,2998,2999,2960,2997,2992,2970,2989,2992,2985,2954,2986,2960,2992,2979,2974,2987,2966,2959,3003,2966,2983,2991,2978,2991,2992,2961,2995,2981,2992,2967,2954,2979,2953,2979,2981,2981,2998,2995,2963,2961,2977,2982,2997,2992,2985,2983,2992,2960,3007,2972,2997,2991,2995,2989,2992,2998,2987,2993,2976,2978,2997,2960,2973,2986,2959,2986,2980,2976,2961,2991,2975,2998,2992,2975,3002,2974,3007,2970,3007,2987,0
2978,2979,2958,2989,2969,2967,2978,2998,2969,2975,2967,2986,2986,2993,2989,2978,2992,2962,3002,2966,2991,2967,2994,2954,2990,2975,2992,2967,2951,2995,2978,2960,3009,2965,2971,2958,2970,3003,2966,2990,2985,3009,2979,2966,2963,2987,2954,2999,2962,2998,2981,2991,2993,2963,2979,2973,2995,2960,2960,2983,2990,2946,2976,2999,2960,3004,2998,2966,2989,2994,2982,3003,2989,2999,2963,2998,2958,2997,2986,2962,3002,2951,2977,2993,2960,2999,2961,2958,2975,2962,2962,2992,2960,3005,2944,3003,2960,2990,3001,0
2954,2959,2993,2967,2998,2960,2991,2987,2971,2998,2955,2987,2959,2989,2961,2997,2978,2958,3006,2969,2979,3011,2952,2999,2989,2980,2989,2953,2994,2966,2972,2971,2975,2983,2981,2983,2978,2974,3002,2960,2983,3001,2960,2991,2973,2962,2998,2971,2965,2998,2970,2966,2967,2991,2981,3001,2998,2974,2997,2997,2972,2992,2994,2974,2992,2995,2976,3005,2963,2971,2983,2965,2983,2966,2969,3005,2992,2998,2960,3011,2993,2971,3023,2972,2963,2992,2987,3001,2992,2991,2975,2994,2972,2992,2963,2982,2989,2963,2987,0
2964,2991,2978,2989,2995,2961,2991,2984,2957,2998,3009,2978,3006,2949,2997,2985,2945,2992,2983,2966,2975,2992,2971,2992,2960,2992,2961,2983,2997,2956,2970,2973,2983,2991,2965,2989,2979,2978,2982,2986,2983,2986,2959,3006,2967,3007,3002,2989,2955,2975,2973,2989,2977,2973,2979,2991,2964,2973,2977,3009,2959,2998,2963,2999,2993,2963,2983,2975,3009,2967,2982,2987,2992,2983,2997,2990,2979,2976,2991,2970,2990,2991,2993,2987,2975,2989,2989,2966,3008,2969,3006,2958,3001,2955,2992,2974,2969,2990,2987,0
2970,2992,2992,2976,3004,2975,2976,2979,2975,2987,2993,2988,2976,2987,2950,2986,2969,2973,2993,2993,2949,2982,2970,2992,2958,2979,2979,2981,2960,2960,2974,2985,2946,2995,3002,2976,2971,2961,2999,2987,2960,2974,2993,2971,2991,2993,2960,3006,2995,2970,2959,2991,2975,2960,2998,2959,2961,2991,2998,2958,2987,2996,3002,3005,2989,2960,2973,2992,2977,3015,2965,2978,2966,3003,2958,2992,2986,2987,2963,2977,2985,3008,2962,3010,2980,2977,2967,2997,2992,2979,2978,2991,2996,2974,3005,2978,2998,2992,2984,0
2982,2975,3005,2965,2992,2964,2976,2961,3003,2983,3006,2956,2992,2971,2970,2981,2992,2968,2970,2982,2961,2953,2995,2961,2999,2976,2977,2966,2992,2990,2958,3002,2957,3007,2969,2979,2953,2999,2960,2997,2988,2981,2996,2967,2949,2999,2974,2983,2992,2989,3003,2993,2987,2987,2960,2971,2992,2991,2944,2960,2997,2960,2999,2962,2992,2986,2977,2998,2965,2971,2978,2978,2955,2992,2957,2983,2976,2995,2978,2989,2966,3002,2967,2973,2987,2949,2994,2981,3007,2964,2994,2974,2971,2982,2984,2989,2980,3011,2965,0
2965,3006,3005,2958,2987,2989,2963,3002,2991,2966,2983,2943,2993,2973,2979,2995,2992,2995,2968,2965,3007,3014,2991,2964,2976,2992,2969,2992,2963,2973,2990,2992,2945,3009,2988,2976,3002,2992,2987,2977,2974,2943,3011,2966,2980,2982,2960,2983,2973,2960,3003,3010,2975,2996,2963,2971,2966,2987,2975,2969,2985,2967,3006,2938,3003,2961,2977,2991,2977,2969,2992,2983,3010,2991,2963,2970,3005,2999,2982,2977,3003,3011,2961,2989,2974,2983,2997,2945,2980,3010,2961,2997,2982,2983,2971,2975,2991,2975,3008,0
2962,3014,2953,2997,2979,2960,2991,2997,2942,3003,2951,2995,2952,2979,2992,2989,2965,2992,2960,2982,2954,3003,2989,2986,2985,2957,2981,2958,2978,2953,2969,2977,2975,2978,2970,2961,2996,2999,2971,2983,2998,2964,2979,2982,2987,2949,3007,2992,2990,2979,2992,2988,2970,2960,2998,2965,3011,2995,2960,2956,3007,2972,2981,2964,2981,2983,2986,2957,2977,3003,2957,2986,2987,2961,2974,3003,2997,2979,2998,2970,3003,2983,2978,3008,2993,2963,3001,2978,2979,2975,2979,2982,2969,2991,2969,2992,2973,2975,2977,0
2998,2963,3011,2994,2971,3019,2995,2997,2970,2981,2960,2978,2985,2974,2960,2991,2991,2957,2986,2964,3006,2960,2981,2989,2979,2990,2976,2974,2975,2977,2977,2985,2973,2977,2967,2994,2969,2970,2962,2955,2998,2988,2991,2991,2992,2992,2976,2992,2967,2982,2970,2997,2961,2993,2998,2960,2991,2964,2959,2999,2999,2971,3010,2987,2965,2993,2965,3010,2993,2970,2991,2976,2973,3006,2974,2992,2982,2974,2983,2981,2973,2996,2963,2985,2986,2992,2970,2971,2990,2981,2992,2992,2979,2993,2967,2995,2959,2979,2964,0
3001,2970,3009,2990,2967,2962,2999,2979,2982,3003,2969,2992,2960,2995,3013,2978,2961,2966,2965,2989,2959,2993,2964,2981,3006,2950,2993,2981,2992,2973,2971,2993,2960,3003,2981,2965,2971,2987,2973,2997,2973,2960,2985,2984,2951,2995,2960,2982,3010,3003,2953,2964,2983,2977,2973,2997,2980,2960,2995,2965,2992,2983,2979,2994,2958,2987,2965,2987,2993,2995,2960,2991,2992,2977,2994,2972,2963,3007,2969,2975,2987,2972,2992,2974,2992,2971,2981,2983,2971,2992,2960,2962,3007,2978,2969,2973,2977,2983,2986,0
2987,2979,3009,2980,2989,2964,2994,2966,2958,2991,2978,2992,3006,2958,3005,2971,3005,2961,2976,2983,2966,2978,2975,2960,2991,2955,3002,2960,2997,2982,2993,2967,2991,2975,2961,2992,2950,3005,2958,3015,2964,2979,2992,2989,2983,2990,2969,2990,2965,3012,2962,2983,2973,2997,2992,2948,2963,2999,2970,2995,2998,2960,2994,2985,2992,2949,3002,2960,2973,2969,2985,2962,2994,2957,2993,3010,2961,2957,2977,2954,2995,2947,2998,3009,2979,2971,2945,2989,2957,2963,2988,2961,2975,2951,2999,2951,3008,2969,2992,0
2963,2989,2966,2974,2992,2975,2960,2989,2959,2995,2966,2993,2987,2961,2993,2972,2987,2995,2963,2999,2951,3005,2967,2992,2992,2971,2992,2992,2975,2975,2999,2991,2997,2957,2978,2992,2959,2986,2958,3013,2949,2975,2977,2980,2949,2991,2962,2991,2977,2971,2978,2975,2981,2960,2992,2960,2969,2983,2969,3006,2979,2967,3007,3003,2959,2963,2978,2977,2977,2968,2995,2960,2992,2975,2999,2999,2965,2987,2977,2970,2960,2987,2986,2965,2959,2992,2976,2992,2961,2990,2961,2988,2964,2992,2975,2998,3015,2957,2991,0
2978,2971,2992,2974,2971,2991,2950,2995,2976,2997,2965,2960,2967,2982,2991,2981,2991,2960,2994,2970,3005,2980,2999,2970,2987,2995,2975,2973,2990,2991,2957,3002,2976,2955,3008,2977,2981,3006,2992,2974,2977,2995,2973,2991,2981,2964,2990,2971,2999,2970,2993,2960,3008,3009,2991,2954,2974,2960,2975,2992,2965,2983,2961,2983,2990,2964,2977,2993,2975,3001,2997,2962,2974,2992,2979,2974,2965,3005,2972,2960,2985,2965,2951,2994,2960,2991,2969,2994,2957,2958,2960,3003,2981,2965,2989,2995,2963,2969,2999,0
2959,2992,3013,2970,2973,2993,2973,2979,2993,2960,2990,2966,2992,2975,2954,2981,2966,2985,2969,2986,2969,2973,2967,2960,3007,2975,2975,2975,2962,2983,2982,2975,2992,2992,2978,2978,2979,2960,2973,2992,2985,2981,2985,2986,2992,3002,2978,2965,2993,2967,2987,2974,2994,2997,2989,2987,2992,2983,2999,2982,3002,2966,2966,2960,2995,2955,2991,2972,2971,2982,2986,3002,2966,2993,2970,2983,2961,2997,2985,2989,3009,2999,2962,3007,2966,2992,2992,2976,3000,2976,2960,2992,2958,2987,2990,2961,2967,2986,2971,0
2999,2978,2977,2992,2973,2956,2975,3005,2956,3001,2990,2967,2972,2993,2991,2981,2962,2987,2967,2979,2971,2995,2976,2978,2977,2985,2974,2982,2961,2958,2982,3003,2978,2992,2960,2987,2956,2995,2960,2983,2966,2994,2958,3002,2979,2992,2999,2955,2992,2986,2975,2993,2974,2998,2967,2993,2989,3005,2963,2976,2982,2977,2994,2974,2979,2989,2960,2991,2972,2969,2960,2992,2963,2991,2976,2983,2999,2968,2987,2992,2946,3002,2971,2965,2985,2973,2992,2960,3005,2986,2983,2997,2962,2993,2963,3003,2958,2981,2950,0
2981,2960,2991,2987,2992,2962,2992,2965,2976,3008,2976,2981,2995,2999,2954,2981,2979,2980,2962,2979,2991,2967,2973,2982,2979,3005,2955,2987,2971,2983,2960,2995,2974,2992,2975,2966,2977,3003,2987,2960,3008,2971,2974,2997,2989,2978,2981,2999,2953,2993,2987,2994,2960,2991,2961,2992,2979,3003,2969,2977,2992,2965,2971,2991,2979,2999,2974,2992,2980,2985,2999,2963,2993,2963,2995,2987,2992,2992,2954,2991,2963,3001,2960,3011,2976,2999,2965,2996,2985,2964,2971,2998,2999,2981,2971,2976,2991,2964,2994,0
2967,3010,2973,2977,2988,2960,2986,2970,2983,2987,3005,2965,3005,2960,2990,2991,2999,2976,2992,2991,2986,2993,2964,2975,2975,2985,2961,2990,2975,2999,2993,2980,2975,2995,2977,2983,2960,2971,2997,2963,2997,2981,2977,3006,2963,2990,2960,2986,2997,2973,2990,2991,2983,2962,2992,3003,2987,3008,2967,2992,2969,2979,2991,2979,2985,2995,2979,2966,2974,2999,2978,2993,2998,2957,2976,2998,2965,2993,2992,2981,2979,2981,2977,2992,2970,2995,2962,2999,2966,2998,2974,2975,2978,2979,2990,2986,2998,3006,2976,0
2991,2992,3015,2981,2964,2998,2973,2975,2993,2969,2972,3007,2976,2966,2973,2992,2982,2991,2977,2987,2995,2988,2987,3004,2973,2965,2992,2983,2977,2991,2962,3006,2977,2999,2979,2991,2977,2985,2995,2967,2981,2979,2973,2972,2971,2989,2999,2981,2978,2976,2975,2977,2992,2982,2960,2978,2965,2986,2957,2992,2972,2992,2977,2995,2963,2991,2969,2981,2979,2966,2987,2974,2970,2992,3003,2976,3009,2972,2997,2981,2991,2986,2974,3006,2992,2986,3001,2979,2960,2997,2969,3003,2960,2995,2969,2993,2992,2963,2989,0
2994,3008,2970,2983,2987,2962,2987,2981,2979,2977,2968,2966,2992,2977,2986,2960,2983,2972,2994,2970,2971,2969,3009,2963,2985,2960,2985,2991,2994,2979,2971,2974,2988,2955,2992,2983,2979,3006,2977,2979,2978,2989,2992,2981,2992,2963,2966,2982,2989,2995,2984,2987,3001,2987,2992,2977,2979,3003,2966,3007,2965,3003,2992,2982,2995,2978,2974,2974,2982,2992,2979,2992,2983,2979,2967,2982,2989,2961,2992,2986,3007,2966,3003,2973,2999,2970,2974,2995,2969,2992,3008,2973,2976,2997,2960,2972,2975,3002,2975,0
2975,2976,2980,2990,2981,2979,2988,2986,2977,2999,2981,2994,2991,2970,2960,2994,2977,2989,2975,2992,2970,2989,2991,2989,2978,2970,3019,2998,2956,2982,2975,2999,2971,3003,2976,2982,2985,2992,2955,2981,2978,2994,2972,3007,2965,3002,2977,3006,2964,2999,2997,2986,2992,2965,2991,2989,2977,2998,2992,2982,2976,2979,2977,3002,2976,2985,2981,2959,2960,2995,2960,2992,2967,3001,2967,2992,2980,2969,2976,2976,2995,2952,2961,2992,2974,2990,2974,2992,2970,2983,2961,2966,2995,2962,3015,2966,2994,2999,2992,0
2991,2955,2987,2991,2952,2993,2982,2966,2990,2979,2992,2974,2967,3008,2960,2995,2999,2991,2961,2979,3002,2960,2974,2971,2991,2973,2975,2969,2976,2963,2963,2998,2963,2988,3005,2962,2969,2982,2966,2984,2976,2972,2989,2999,2973,2993,2995,2949,2978,2992,2967,2995,2977,2975,2990,2969,2977,2987,2979,2979,3008,2970,2999,2993,2979,3004,2967,2987,2988,2993,2976,2985,2992,2993,2974,2986,2960,2973,3008,2984,2985,2973,2990,2970,2980,2975,2986,2967,2999,2953,3009,2970,2995,2994,2984,2982,2982,2992,2962,0
3009,2992,2997,2971,2999,2992,2989,2997,2992,2978,3003,2967,2999,2970,2977,2977,2977,2979,2989,2977,2963,3010,2952,2960,2998,2982,2987,2976,2981,2968,2967,2989,2964,2997,2960,2991,2979,2983,2986,2973,2982,2983,2977,2966,2992,2960,2989,2991,2983,2999,2960,2971,2991,2980,2971,2976,2985,2994,2978,2995,2965,2989,2972,2989,2992,2968,2961,3001,2960,2998,2987,2979,2983,2971,2961,2991,2991,2987,2988,2994,2972,2992,2989,3001,2978,2960,2987,2979,3002,2975,3007,2973,2993,2973,2993,2997,3003,2988,2987,0
3002,2978,2962,2993,2997,2990,2992,2972,2992,2972,2998,2991,2960,2985,2991,2992,2982,2998,2981,2969,3003,2961,3003,2992,2987,2992,2988,2978,2994,2981,2970,2969,3006,2960,3008,2981,2991,2992,2975,2994,2978,3002,2986,2979,2999,2997,2992,2965,2999,2974,2991,2981,3003,2966,2978,2987,2961,2992,2989,2966,2992,2961,2991,2970,2970,2967,2965,2974,2991,2987,2979,2977,2961,2981,2992,2973,2982,2975,2986,2974,2963,2978,3002,2970,2994,2986,2971,2996,2970,2997,2975,2970,2999,2988,2992,2972,2975,2981,2989,0
3003,2991,2983,2992,2977,2960,2997,2985,2974,2996,2979,2979,2993,2971,3009,2969,2994,2970,3007,2960,2983,2982,2998,2962,2961,2963,3007,2988,2981,2968,2986,2987,3003,2977,3001,2987,2995,2976,2979,2993,3005,2973,2981,2991,2970,2998,3013,2969,2960,3003,2963,2992,2970,2974,2992,2987,2999,2961,3009,2970,2975,2986,2982,2993,2982,2994,2980,2992,2969,2999,2975,2989,2971,2990,2970,2993,2997,2979,2975,2966,2997,2960,2967,2995,2973,2974,2991,2978,2962,2965,2993,2963,3008,2971,2995,2967,2955,2995,2977,0
2969,2983,2953,2994,2988,2958,2994,2979,2969,2979,2995,2995,2977,2978,2990,2958,2983,2960,2997,2964,2999,2988,3007,2966,2979,2999,2974,2987,2949,2997,2973,2965,2985,2981,2973,2976,2982,2964,2991,3003,2965,2997,2966,3000,2991,2990,2985,2974,2974,2999,2981,2960,2985,2949,3006,2962,2991,2970,2995,2960,2976,3003,2982,2967,2992,2979,2973,2990,2966,2977,2983,2986,3005,2961,2995,2976,2992,2970,2999,3009,2975,2979,2993,2992,3002,2987,2986,2972,2990,3006,2960,3002,2963,2987,2979,2979,2960,2990,2971,0
3003,2969,2987,2969,3006,2961,2985,2953,3003,2960,2997,2988,2976,2965,3002,2979,2977,2965,2993,2992,2974,3002,2982,2982,2987,2977,3007,2978,2961,2989,2960,3009,2992,2991,2987,2992,2961,2994,2955,2979,2992,2971,2992,2965,3002,2970,2995,2960,2991,2993,2974,2990,2957,2999,2977,2969,2979,2960,2995,2965,2989,2975,2957,2974,2988,2992,2980,2989,2962,2990,2986,2978,2985,2992,2987,2992,2979,2997,2977,2977,2992,2978,2954,2999,2962,2960,2987,2961,2992,2960,2969,2995,2955,2999,2975,3002,2973,2972,2989,0
2992,2977,2963,2965,2989,2975,2983,2977,2971,2990,2977,2974,2991,2990,2982,2960,3003,2962,2992,2954,2988,2985,2963,2973,2970,2966,2992,2989,2962,2979,2997,2963,2990,2995,2987,2992,2970,2981,2960,2997,2980,2995,2982,2993,2974,2973,2992,2950,3003,2965,2977,2965,2969,2992,3003,2993,2973,2963,2965,2983,2977,3002,2992,2973,2961,2965,2970,2996,2965,3003,2975,2986,2953,3001,2971,2999,2963,2997,2983,2970,2965,2992,2958,2969,2971,2979,2998,2980,2988,2969,3003,2957,2983,2980,2960,3002,2986,2999,2965,0
2994,2957,2993,2969,2992,2960,2983,2971,2997,2960,2969,2975,2970,2957,2981,2977,2962,3001,2985,2977,2990,2973,2961,2970,2993,2970,2993,2963,2964,2991,2956,3001,2965,2972,3001,2968,2995,2965,2987,2960,2964,2983,2973,2992,2960,2973,3003,2981,2983,2965,2975,2991,2960,2978,2973,2986,2965,2992,2958,3003,2992,2960,2968,2994,2967,2983,2975,2960,2986,2971,2999,2961,2983,2970,2983,3003,2975,2974,2961,3006,2964,2972,2981,2961,2993,2978,2977,2955,2998,2993,2960,2960,2998,2962,2990,2993,2982,2987,2959,0
2973,2970,2987,2983,2971,2975,2981,2976,2986,2960,2999,2998,2999,3002,2976,2995,2974,2997,2993,3008,2959,2983,2976,2993,2992,2992,2961,2986,2975,2971,2985,2977,2983,2997,2987,2992,2967,2983,2976,2990,2961,2973,2960,2987,3009,2987,2965,2992,2977,2960,2974,2964,2993,2980,2971,2973,2991,2977,2974,2975,2982,2960,2982,2976,2997,2961,2999,2970,2974,2975,2960,2978,2999,2960,3003,2978,2987,2959,2960,2985,2963,3001,2977,3001,2967,2960,2991,2965,2986,2993,2985,2972,2986,2982,2999,2970,2991,2979,2954,0
2994,2974,3003,2976,3005,2970,2998,2960,2997,2970,2991,2960,2964,2999,2987,2972,2991,2960,2992,2977,2987,2958,2998,2993,2999,2986,2973,2966,2975,2972,2991,2971,2999,2999,2965,2983,2958,2995,2962,2992,2976,2995,2955,2977,3003,2958,3002,2962,2994,2983,2993,2991,2960,2992,2972,2992,2960,2989,2962,3006,2960,2994,2971,2978,3005,2978,2991,3009,2969,2993,2976,3011,2963,2962,3007,2965,2976,2977,2962,2998,2982,2987,2972,2960,2999,2995,3007,2963,2991,2992,2960,2968,2986,2958,3007,2965,3002,2974,2987,0
2992,2958,2991,2974,2990,2983,2978,2989,2985,2990,2991,2953,3009,2977,2965,2998,2951,2982,3006,2964,2965,2967,2959,2965,2996,2973,2978,2976,3005,2986,2963,2989,2961,2960,2979,2950,2997,2978,2992,2978,2992,2960,2992,2975,3012,2960,2970,2978,2971,2960,2975,2968,2990,2960,2987,2970,2986,2971,2975,2991,2992,2965,2983,2978,2988,2965,2979,2997,2974,2963,2978,2986,2978,3011,2973,2991,2969,2991,2976,2985,2966,2995,2960,2997,2954,2967,2972,2998,2956,2990,2960,2997,2957,2983,2961,2995,2960,2960,2990,0
2982,2977,2995,2991,2992,2991,2978,2993,2971,2986,2987,2964,2963,2976,2997,2987,2961,2989,2960,3007,2961,2976,2979,2980,2971,2992,2975,3004,2965,3004,3009,2961,2998,2966,2978,2985,2991,2999,2975,2977,2961,2994,2966,2995,2979,2996,3008,2985,3007,2983,2970,2992,2990,2961,2989,2969,3007,2964,2991,2991,2974,2995,2979,2992,2971,2973,2979,2983,2974,2992,2995,2974,2987,2965,2991,2995,2965,2981,2977,2992,2977,2981,2983,2992,2983,2992,2993,2957,3003,2974,2985,2992,3002,2976,2957,2997,2982,2973,2993,0
2960,3014,2975,2982,2992,2960,3001,2985,2971,2989,2992,2959,2964,3005,2975,2965,2992,2982,2977,2966,2994,2966,2995,2956,2996,2961,2974,2978,2973,3005,2982,2967,2961,3003,2969,2999,2962,2989,2961,2970,2981,2968,2967,2975,2980,2970,2994,2995,2960,3009,2998,2991,2967,2997,2990,2971,2979,2988,2975,3003,3010,2957,3015,2960,2992,2965,2970,3002,2983,2995,2992,2993,2981,2983,2999,2964,2982,2951,3007,2964,2993,3007,2965,2974,2968,2983,2997,2982,2986,2991,2959,3005,2976,2977,2966,2973,2960,2979,2962,0
2992,2956,3008,2960,2989,2960,2978,2990,2970,2979,2960,2981,2995,2991,2974,2982,2977,2979,2979,2993,2976,2975,2987,2978,2976,2967,3008,2976,2982,2969,2969,2992,2992,2960,2986,2974,2995,2966,2976,2992,2993,2960,2969,2995,2957,3007,2960,2994,2968,3005,2967,2951,2965,2997,2954,2994,2998,2997,2981,2960,3008,2960,2995,2954,2992,2993,2975,2977,2968,2947,2972,2990,2977,2974,2966,2983,2966,2965,2974,2990,2979,2993,2967,2961,2974,2965,3007,2991,2960,2978,2979,2993,2954,2992,2953,3006,2971,2987,2965,0
2982,2992,2960,2980,2992,2974,2975,2992,3001,2982,2979,2982,2957,2991,2973,2978,2978,2949,2999,2995,2977,2975,2991,2960,2952,2989,2961,2995,2960,3009,2955,2998,2997,2992,2989,2962,2979,2970,2994,2959,2986,2978,2993,2969,2997,2957,2994,2974,2999,2963,2967,2983,3000,2976,2994,2985,2976,2989,2962,2981,2982,2966,2992,2965,2989,2985,2981,2992,2979,2993,2972,2995,2979,3007,3010,2970,3007,2966,2998,2970,3007,2962,2991,2963,2967,2987,2986,2992,2974,2973,2986,2977,2999,2968,3002,2969,3002,2975,3006,0
2975,2993,2972,2993,3010,2988,3011,2960,2999,2966,2997,2987,2977,2962,2963,2991,2979,2992,2970,2998,2955,3003,2956,2990,2973,2971,2983,2980,2994,2997,2978,2995,2975,2990,2995,2977,2985,2987,2972,2988,2993,2997,2979,2999,2972,3003,2971,2965,2989,2992,2977,2992,2976,2989,2987,2966,3006,2960,2999,2960,2992,2960,2999,2972,2992,2967,2974,2981,2982,2997,2995,2960,2992,2981,2965,2995,2979,2996,2978,2995,2972,3008,2958,2967,3008,2954,3009,2995,2964,2992,2997,2983,2969,2993,2973,2991,2979,2992,2993,0
2983,2962,3019,2993,2973,2993,2981,2971,2998,2965,3002,2963,2992,2961,2992,2979,2992,2992,3002,2962,2969,2997,3007,2963,2995,2970,3006,2973,2964,2999,2961,2994,2973,2990,3007,2992,2990,2975,2990,2968,2980,2973,2961,2981,2981,2992,2960,2992,2966,3005,2967,2991,2967,2965,2992,2994,2990,2979,2986,2981,2987,2986,2974,2979,2992,2976,2994,2960,2957,2999,2945,2976,3015,2951,2987,2995,2967,2976,2991,2988,2983,2976,2992,2980,2998,2977,2991,2987,2983,2991,2975,3002,2963,2970,2967,2979,2972,2976,2961,0
2998,2978,2992,2988,2982,2981,2989,2967,2997,2996,2991,2981,2982,2988,2966,2975,2974,2987,2987,2987,2960,2999,2955,2983,2989,2983,2992,3003,2969,2954,2992,2981,2993,2976,2990,2986,2972,2977,2982,2972,2967,2992,2992,2960,2953,2991,2963,2995,2962,2997,2964,2992,2972,2965,2987,2970,2960,2998,2960,2992,2964,3002,2963,2977,2982,2960,2997,2953,2992,2971,2986,2965,2992,2989,2959,2975,2982,2963,2962,2977,2987,2992,2962,2999,2963,2960,2967,2995,2999,2976,2996,2971,2985,2991,2975,2998,2970,2976,2973,0
2966,2958,2986,2979,3001,2960,2985,2987,2989,2977,2993,2971,2991,2974,2960,2995,2991,2956,2982,2987,2988,2967,2953,2993,2983,2979,2992,2956,2998,2971,2975,2992,2971,2968,2962,2993,2979,2988,2979,2982,2973,2999,2961,2987,2990,2992,3001,2980,2993,2976,2987,2963,2987,2987,2967,2998,2997,2960,2999,2966,2992,2978,2981,2997,2960,2998,2990,2981,2983,2986,2995,2986,2975,2972,3003,2999,3008,2960,2973,2974,2983,2992,2976,2976,2973,3008,2980,2990,2982,2971,2978,2992,2964,2992,2995,2982,2993,2992,2992,0
2995,2962,2970,2998,2985,2999,2986,3006,2990,2987,2961,2986,2971,2977,2989,2960,2994,2951,2978,2992,2958,2995,2987,2977,2971,2991,2988,2970,2993,2971,3008,2966,2999,2960,2995,2975,3004,3004,2964,2966,2960,2978,2979,2996,2992,2963,2992,2990,2961,2992,2971,2961,2978,2989,2976,2981,2982,2970,2975,3002,2970,2992,2981,2987,2970,2992,2996,2976,2991,2977,2996,2977,2995,2965,2991,2974,2999,2971,2992,2992,2974,2973,2992,2961,3002,2961,3005,2963,2986,2964,2983,2960,2991,3008,2975,2965,2986,2986,2997,0
2974,2992,2967,2993,2960,2975,2973,2987,2991,2976,2975,2975,2991,2961,2981,2991,2982,2975,2976,2965,2963,2992,2970,2993,2975,2975,2993,3002,2960,3003,2967,2999,2997,2969,2996,2963,3003,2960,2995,2969,2987,2990,2968,2981,2971,2975,2992,2989,2995,2994,2990,2960,2992,2971,2965,3014,2965,2995,2962,2987,2985,2998,2963,2971,2995,2958,2992,2962,2982,2960,2995,2956,2959,2983,2989,2951,3007,2979,2969,2958,2993,2960,2986,2960,3002,2957,2991,2960,2961,2985,2987,2970,2961,2972,2986,2960,2965,3009,2945,0
3003,2992,2952,2969,3006,2954,2998,2973,2977,2991,2979,2956,2992,2971,2965,2985,2975,2999,2963,2993,2957,2999,2958,2998,2962,2967,2987,2989,2967,2989,2978,2979,2992,2987,2985,2991,2960,2991,2960,2978,2993,3001,2986,2995,2969,2999,2960,2993,2961,2986,2979,2982,2987,2955,2995,2992,2978,2983,2982,2985,3005,2968,2992,2964,2984,2985,2993,2991,2975,2983,2962,2979,2975,2979,2978,2987,2971,2975,2974,2982,2977,2976,2987,2983,2979,2983,2978,2993,2975,2966,2969,3006,2971,2995,2960,2992,2967,2977,2991,0
2974,2997,2975,2962,2982,3009,2970,2977,2971,2982,2991,2980,2960,2987,2971,2989,2992,2990,2990,2967,3007,2977,2985,2973,2965,2975,2982,2999,2960,2992,2987,2971,2992,2978,2978,2976,2987,2986,2982,2975,2972,2995,2957,3002,2955,3008,2964,2991,2962,2997,2981,2971,2986,2970,2998,2991,2991,2971,2992,2963,2982,2999,2961,2993,2959,3003,2959,2992,2980,2993,2975,2969,2973,2971,2982,2966,2986,2975,2998,2981,2995,2969,2977,2998,2990,3008,2973,2989,2973,2983,2992,2957,2988,2964,3002,2957,2992,2981,2984,0
2981,2991,2987,2997,2983,2987,2961,2993,2986,2977,2973,2987,2989,2971,2992,2981,3003,2960,2998,2985,2963,2993,2987,2983,2979,2991,2972,3007,2975,2989,2994,2973,2991,2982,2986,2992,2968,3003,2962,3002,2999,2971,2992,3003,2997,2963,2974,2987,2983,2992,2961,2994,2974,3003,2977,3005,2978,2987,2987,2996,2978,2994,2990,2967,2979,2992,3000,2992,2969,2971,2987,2977,2989,2971,2983,2993,2959,2992,3015,2960,2992,2967,2983,2992,2960,3003,2975,2976,2975,2967,3008,2965,2960,2966,2974,2991,2971,2978,2981,0
2985,2978,2983,2983,2981,2971,2986,2996,2999,2969,2983,2991,2975,2998,2975,2963,2961,3007,2965,2961,2961,2994,2989,2960,2991,2960,3014,2975,2970,2957,2992,2997,2958,2992,2979,2993,2990,2989,2979,2971,2988,2967,2990,2987,2993,2962,2963,2981,2965,2977,2966,2971,2992,2979,2960,2976,2973,2975,2981,2975,2976,2959,3001,2960,2989,2986,2970,2982,2992,2987,2992,2989,2965,2983,2945,2973,2970,2994,2956,2981,2976,2961,2978,2978,2992,2968,2995,2973,2955,2970,2989,2973,2997,2989,2988,2982,2999,2975,2961,0
2989,2973,2971,2975,2961,2998,2987,2958,2983,2975,2986,2964,2996,2989,2959,2982,2981,2999,2960,2954,2992,2991,2953,2992,2989,2992,2944,2987,2993,2991,2961,2990,2989,2971,3003,2972,2998,2972,2992,2961,2992,2975,2982,2978,2986,2960,3007,2965,2971,2992,2971,3019,2975,2967,2988,2992,2992,2959,2987,2986,2989,2947,2989,3005,2947,2992,2961,2989,2974,2979,2994,2999,2989,2975,3011,2981,2987,2983,2990,3007,2963,2970,2987,2992,2965,2983,2979,2974,2994,2981,2992,2963,2980,2966,2991,2960,2987,2961,2960,0
2987,2993,2992,2964,3011,2966,2993,2960,2973,2967,2965,2979,2975,2968,2995,2973,2982,2965,2992,2976,2983,2979,2983,2999,2965,2993,2959,2989,2986,2961,2976,2955,3006,2969,2977,2978,2961,2995,2994,2974,2990,2988,2977,2994,2977,2992,2983,2987,2992,3002,2972,2995,2965,2990,2953,2995,2960,2953,2973,2983,2982,3003,2961,2977,3002,2957,2990,2985,2996,2960,2981,2973,2979,2973,2957,2979,2963,3003,3003,2963,2951,3007,2956,2992,2962,2985,2995,2993,2967,2991,2964,2994,2973,2975,2960,2977,2985,2965,2993,0
2953,2986,2979,2987,2961,2983,2965,2987,2978,2975,2976,2975,2987,2990,2960,2995,2959,2972,2979,2962,2990,2964,2979,2980,2977,2968,2976,2967,2997,2987,2983,2960,3002,2978,2983,2965,2967,2971,2978,2983,2984,2991,2971,2977,2961,2992,2967,2983,2967,3003,2989,2942,2956,2977,2965,2990,2977,2973,2987,2979,2979,2992,2963,2990,2961,2958,2976,2992,2991,2993,2988,3011,2960,2992,2966,2993,3002,2977,2995,2970,2983,2978,2979,2988,2985,2978,2971,2977,2981,2965,2975,2976,2974,2961,2992,3003,2970,2981,2975,0
2985,2977,2986,2991,2992,2992,2954,3005,3003,2985,2991,2987,2997,2960,2971,2976,2988,2975,2981,2994,2972,2971,2973,2979,2992,2969,2991,3003,3003,2960,2979,2958,2997,2960,2986,2991,2961,2983,2983,2989,2967,2993,2960,2962,2999,3002,2991,2992,2971,2985,2971,2976,2992,2992,2992,2993,2987,2978,2963,2982,2977,2977,2992,3002,2995,2973,2967,2992,2958,2994,2971,2987,2972,2967,2992,2987,2973,2999,2959,2975,2964,2982,3005,2974,2989,2995,2963,2977,2997,2967,3010,2960,3002,2983,2986,2969,2978,2979,2981,0
2987,2957,3011,2991,2979,2990,2983,2999,2985,2979,2983,2982,2988,2981,2989,2982,2975,2962,2988,2977,2985,2959,2998,2977,2996,2993,2983,3002,2962,2968,2990,2967,2989,2979,2983,2966,2970,2992,2992,2995,2961,2979,2962,2985,3003,2969,2965,3001,2973,2993,2985,2999,3007,2975,2992,2978,2967,3002,2969,2989,2989,2964,2998,2963,2991,2982,2969,2992,2991,2995,2999,2978,2998,2966,2989,2992,2974,2967,2992,2981,2960,2999,2997,2960,2996,2987,2985,2976,2979,2981,2987,2971,2991,2959,2966,2998,2966,2999,2972,0
2965,2971,2992,2982,2995,2969,2971,2990,2992,2975,2963,2999,2991,2967,2991,2992,2990,2964,2959,2983,2979,2985,2972,2992,2991,2979,2989,2977,2974,2993,2992,2983,2975,2980,2962,2980,2973,2969,3003,2998,2963,2969,2985,2983,2992,2972,2992,2974,2986,2963,2992,2970,2983,2993,2998,2989,2964,2975,2987,2964,2999,2981,2975,2973,3006,2960,2977,2997,3007,2992,2965,2990,2960,3006,2973,3003,2978,2990,2955,2999,2971,2987,2984,2990,2977,2967,2983,2996,2992,2963,2995,2971,2998,2960,2999,2989,2976,2971,2994,0
2965,2989,2982,2999,2962,2957,2992,2982,2999,2980,2990,2986,2963,2960,2990,2992,2979,2976,2973,2975,2992,2991,2960,2962,2996,2994,2970,2994,2991,2960,2991,2969,2983,2993,2960,2965,3002,2961,2979,2956,3007,2978,2989,2961,2975,2999,2990,2987,2963,2997,2985,2991,2997,2941,2991,2971,2986,2985,2992,2978,2987,2970,2983,2990,2962,2975,2998,2970,3006,2958,2991,2995,2960,2992,2963,2966,2975,2981,2983,2955,2989,2962,2993,2977,2967,2986,2973,2981,2979,2986,2989,2987,2973,2992,2971,2979,2992,2960,2992,0
2965,3007,2981,2999,3005,2967,2981,2963,2976,2995,2993,2989,2985,2980,2978,2997,2985,2969,2992,2982,2988,2964,2988,2961,2969,2996,2994,2977,2992,2972,2970,2986,2960,2993,2967,3002,2993,2992,2959,3003,2964,2999,2975,2969,2983,2971,2980,2999,2959,2987,2961,2964,2990,2990,2961,2991,2969,2990,2954,2992,2991,2967,2965,2967,2994,2963,2988,2962,3008,2973,3009,2979,2970,2974,2977,2987,2996,2962,2995,2961,2967,2984,2955,3007,2964,2995,2970,2976,2993,2971,2979,2991,2993,2953,2982,2992,2978,2992,2965,0
2991,2970,2971,2997,2985,2975,2987,2977,2993,2974,2976,2999,2977,3006,2970,2975,2999,2992,2981,2985,2975,2991,2989,2992,2979,2975,2996,2974,2992,2970,2992,2974,3010,3008,2978,2995,2960,3006,2963,2969,2997,2967,2993,2997,2982,2992,2974,2979,2969,2999,2960,2998,2992,2970,2999,2974,2981,2967,2987,2997,2981,2980,2999,2979,2968,2983,2978,2982,2974,2986,2992,2976,2958,3006,2961,2999,2998,2977,2996,2975,2992,2962,3003,2983,2961,2996,2983,2992,2988,2959,2997,2976,2990,2960,2991,2995,2980,2970,2990,0
2974,2995,2977,2992,2960,2961,2989,2969,2984,2978,2992,2983,2985,2965,2978,2995,2976,2991,2971,2995,2975,2992,2991,2998,2993,2970,2955,2991,2985,2989,2975,2982,2987,2970,2975,2973,2976,2989,2987,2969,2983,2986,2976,2961,2973,3003,2960,2976,2991,2967,2976,2974,2960,2992,2990,2987,2995,2979,2991,2971,2981,2989,2985,2988,2971,2971,2987,2971,2969,2999,2962,2997,2990,2971,2992,2991,3005,2992,2978,2970,2983,2975,2997,2957,2993,2997,2977,2960,2992,2979,2982,2960,2973,2974,2973,2992,2962,2973,2979,0
2987,2960,2999,2965,2993,2953,2997,2960,2981,2976,2981,2960,2963,2989,2992,2977,2974,2975,2977,2973,2962,3009,2970,2967,2991,2981,2985,2957,2970,2994,2990,3007,2959,2982,2985,2967,2980,2981,2994,2957,2995,2977,2981,2978,2983,2989,2983,2977,2977,2975,2974,2966,2961,2975,2971,2982,2992,2993,2993,2970,2995,2964,2977,2992,2966,2986,2975,2958,2994,2951,2963,2979,2965,2967,2987,2972,2965,2960,2969,2993,2975,2993,2962,2966,3014,2965,2997,2967,2981,2972,2995,2987,2960,2976,2992,2959,3001,2981,2966,0
3003,2983,2992,2967,2987,2970,2992,2962,2999,2975,2980,2975,2992,2961,3007,2973,2976,2959,2986,2987,2987,2988,2981,2976,2989,2973,3005,2973,3002,2958,2960,2961,3001,2987,2996,2961,2975,2991,2973,2993,2963,3007,2973,3003,2969,2985,2960,2999,2989,2993,2959,2967,2999,2969,2987,2999,2970,2989,2994,2985,2991,2976,2979,2977,3002,2977,2997,2978,2993,2991,2975,2960,2975,2996,2958,2992,2973,2985,2972,2978,2975,2999,2986,2977,2992,2965,2999,2965,2997,2975,2961,2995,2985,2969,2983,2983,2989,2971,2994,0
2979,2970,2992,2981,3003,2975,2987,2982,2973,2992,2994,2971,2995,2991,2974,2987,2993,2989,2989,2977,2963,2995,2993,2977,2997,2960,2997,2981,2994,2971,2979,2990,2982,2970,2992,2960,2995,2994,2969,2991,2967,2990,2966,2992,2992,2960,2999,2977,3006,2992,2965,2979,2987,2992,2965,2985,2976,2981,2961,2992,2969,2992,2981,2997,2986,2969,2971,2994,2995,2979,2970,3008,2967,2989,2969,2995,2989,2976,2992,2965,2960,2995,2976,3007,2966,2999,2975,2992,2968,2950,2978,2983,2985,2995,2974,2992,2991,2965,2997,0
2967,3003,2973,2993,2977,2987,2995,2964,3004,2989,2983,2991,2969,2993,2972,2990,2963,2998,2961,3009,2963,3003,2965,2993,2980,2983,2995,2989,2979,2982,2960,2999,2967,2991,2991,2985,2987,2994,2975,2961,2967,2985,2979,3002,2958,2960,2973,2995,2986,2989,2974,2975,2996,2989,2999,2952,2989,2962,2998,2959,2985,2961,3009,2964,3008,2969,2980,2979,2987,2989,2965,2975,2963,2995,2954,2956,2965,2967,2991,2989,2993,2992,3007,2971,2993,2965,2971,2986,2963,2992,2969,2981,2947,2991,2961,2973,2963,2983,2992,0
2949,2997,2956,2977,2977,2992,2949,2993,2963,2979,2973,2992,2987,2981,2988,2970,2947,2997,2958,3008,2973,3020,2969,2997,2989,2961,2987,2970,2992,2962,2990,2971,2974,2992,2977,2995,2978,2990,3000,2980,2960,2995,2975,2985,2973,2999,2971,2999,2975,2987,2961,2977,2998,2971,2978,2966,2982,2982,2968,2975,2987,2978,2976,2990,2994,2985,2977,2988,2961,2994,2963,2979,2994,2992,3010,2964,2967,2998,2961,2994,2977,2976,2991,2981,2982,2976,2993,2977,2966,2971,2977,3003,2971,2990,2948,3005,2977,2960,2998,0
2973,2992,2960,2986,3002,2977,2974,2997,2989,2969,2960,2981,2970,3008,2966,2997,2962,2989,2995,2969,2961,2983,2969,2983,2991,2973,2979,2974,2975,2983,2986,2978,2999,2995,2991,3006,2974,2960,2986,2998,2989,2989,2979,2987,2973,2978,2992,2992,2973,2964,2965,2991,2975,3003,2992,2961,2976,2962,3007,3002,2971,3007,2979,2973,2969,2992,2992,3003,2995,2994,2983,2990,2977,2969,2989,2990,2989,2970,2977,2979,2975,2975,2999,2989,2972,2991,2963,2989,2972,2977,2963,2983,2986,2992,2975,2992,2991,2991,2971,0
2995,2986,2971,2999,2999,2992,2971,2995,2989,2990,2990,2996,2970,2962,2992,2964,2999,2995,2969,2994,2971,2973,2992,2964,2992,2975,2993,3003,2982,2994,3007,2981,2967,2986,2992,2965,2990,2964,2994,2986,2988,2978,2978,2969,3009,2983,2992,2988,2993,2986,2975,2971,2989,2979,2965,2975,2991,2981,2988,2973,2985,2960,2971,2992,2999,2962,2969,2993,2964,2975,2995,2960,2979,2967,2995,2971,2967,2993,2976,2982,2982,2981,2975,2992,2973,2987,2991,2969,2985,2973,2997,2965,2961,2997,2964,2991,2983,2993,2950,0
2983,2995,2960,2992,2977,2979,2979,2978,2992,2973,2991,3003,2979,2991,2970,2979,2981,2986,2974,3020,2974,2995,2999,2992,2963,3008,2967,2985,2979,2982,2977,3001,2995,2987,2993,2966,2989,2992,2994,2990,2985,2995,2987,2989,2981,2960,2992,2960,2981,2974,2980,3005,2985,2981,2990,2987,2975,2965,2993,3013,2978,2989,2959,3002,2979,2989,2950,2986,2961,3003,2961,2975,2975,2965,2985,3006,2939,2993,2980,2961,2976,2983,2985,2980,2992,2979,2991,2971,2997,2966,2970,2961,2992,2963,2998,2956,2987,2991,2951,0
2986,2964,2979,2972,2991,3010,2960,2982,2969,2986,2983,2992,2960,2997,2960,2960,2976,2971,2993,2970,2965,3009,2975,2992,2961,3001,2957,2990,2976,2957,2993,2973,2953,2962,2995,2965,2965,2992,2978,2992,2965,2995,2967,2960,2963,2999,2983,2992,2990,2969,2995,2977,3002,2960,2974,2977,2960,2967,2971,2976,2971,2986,2990,2970,2988,2963,2978,2959,2986,2981,2966,3005,2972,2995,2964,2962,2993,2958,2999,2985,2970,2992,2959,2962,2963,2994,2964,2999,2957,2995,2965,2978,2991,2992,2969,2986,2979,2968,2993,0
2966,2991,2966,2997,2991,2992,2961,2977,2981,2963,2991,2991,2983,2995,2970,2995,2979,2991,2961,2975,3003,2960,2999,2962,2999,2963,2986,2960,2993,2976,2995,2970,2997,2977,2964,3015,2977,2973,2976,2991,2975,2993,2979,2985,2973,2994,2959,2990,2978,2969,2992,2970,2983,2991,2962,2975,2992,2967,2991,2973,3011,2963,2971,2980,2963,2998,2978,2969,2970,3005,2994,2969,2995,2969,2989,2980,2977,2997,2989,2983,2987,2991,2964,2994,2975,2979,2988,2983,2961,2992,2985,2974,2971,3008,2969,2992,2982,2975,2974,0
2971,2983,2971,2993,2990,2964,2962,2999,2962,2997,2976,2970,2982,2979,2993,2971,2978,2992,2964,2991,2965,2993,2993,2978,2970,2998,2954,2983,2977,2960,2992,2975,2977,2992,2960,2971,2988,2967,2992,2951,2974,2973,2976,2979,2966,2992,2998,2991,2999,2965,2995,2983,2989,2992,2970,3002,2992,2967,2990,2982,2990,2993,2974,2975,2976,2993,2983,2967,2977,2963,2969,3003,2968,2996,2970,2994,2963,2964,2992,2981,2987,2982,2997,2969,2994,2991,2969,2972,2975,2981,2961,2987,2958,2991,2992,2991,2994,2992,2991,0
2990,2966,3005,2971,2989,2969,2983,3007,2957,3004,2967,3011,2963,2985,2986,2973,2994,2969,2990,2959,3005,2963,2960,2976,2975,2981,2992,2959,2994,2966,2966,2981,2983,2960,2987,2985,2966,3002,2960,2977,2978,2970,2993,2960,2998,2960,2999,2967,2971,2974,2992,2978,2981,2965,2980,2960,2997,2983,2955,2989,2966,2987,2951,2999,2988,2983,2960,2981,2971,2971,2986,2969,2986,2952,2995,2956,3003,2966,2995,2974,2971,2977,2990,2974,2983,2987,2981,3005,2969,3007,2966,2990,2964,2990,2962,2983,2947,3007,2977,0
2991,2963,3001,2972,2985,2975,2989,2957,2991,2982,2985,2960,2973,2960,2956,2979,2975,2979,2977,2982,2979,2975,2981,2983,2951,2992,2979,2992,2963,2989,2986,2969,2995,2971,2992,2960,2992,2979,2965,2980,2975,2983,2991,2973,2956,2992,2986,2961,2992,2976,2971,2987,2960,2975,2957,2974,2962,2996,2953,2961,2983,2992,2961,2989,2978,2975,2979,2982,2992,2982,2995,2974,2993,2981,2992,2973,2992,2992,2976,2974,2982,2975,2975,2982,2966,3005,2983,2980,2960,2992,3001,2957,2973,2994,2987,2969,2958,3011,2963,0
2992,2963,2993,2992,2980,2964,2970,2992,2978,2969,2983,2983,2983,2985,2993,2971,2983,2992,2979,2973,2979,2973,2994,2975,3002,2962,2971,2992,2974,2992,2962,2967,2999,2973,2979,2964,2989,2974,2993,3002,2971,2992,2976,2995,2963,2963,2981,2974,2986,2989,2979,2977,2983,2979,2991,2974,2966,2981,2977,3003,2985,2977,2978,3003,2965,2994,2990,2996,2986,2999,2962,2992,2987,2957,2987,2973,2981,2986,2990,2989,2987,2988,2989,2974,2992,2981,2989,2994,2971,2970,2988,2996,2953,2976,2962,2981,2988,2999,2992,0
2965,2993,2963,2991,2958,3009,2983,2956,3002,2996,2983,2992,2989,2953,2991,2958,2989,2975,2970,2976,2995,2989,2971,2974,2964,3001,2992,2975,2991,2974,2983,2974,2963,2989,2974,2989,2960,2961,2980,2971,2991,2958,2962,2976,2966,2999,2974,3003,2987,2982,2979,2970,2977,2989,2990,2965,2971,2973,2995,2960,2994,2992,2965,2999,2990,2979,2973,2973,2985,2991,3003,2960,2999,2960,2987,2976,2978,3006,2986,2984,2997,2978,3007,3011,2981,2960,2991,2977,2998,2991,3005,2989,3006,2964,2990,2961,2973,2982,2989,0
2979,2966,3007,2981,2979,2970,2996,2975,2987,2951,2999,2979,2975,2971,2987,2983,2986,2979,2967,2975,2963,2992,2975,2976,2962,2979,2960,2992,2965,2960,2967,2975,2974,2990,2998,2969,2995,2979,2977,2992,2991,2988,2958,2960,2982,2960,2993,2975,2991,2973,2982,2964,2973,2973,2992,2956,2991,2982,2991,2960,2992,2992,2981,2992,2995,2977,2991,2977,2991,2987,2994,2975,2972,2951,2992,2964,2997,2992,2986,2983,2981,2991,2960,2967,2969,2981,2969,2994,2956,2986,2989,2991,2974,3001,2974,2978,2969,2992,2974,0
2977,2966,2999,2960,2983,2976,2976,2966,2991,2969,2992,2975,2971,2960,2961,2985,2981,3006,2964,2990,2963,2960,2992,2975,2973,2955,2992,2973,3006,2957,2977,2979,2979,2993,2964,2990,2974,2975,2982,2961,2991,2977,2986,2973,2977,2979,2999,2969,2997,2960,2969,2981,2961,2989,2960,2986,2970,2961,3003,2988,2977,2999,2960,2979,2985,2983,2977,2963,2976,2973,2991,2998,2967,2992,2972,2985,2975,2999,2971,2965,2987,2965,2991,2971,2992,2960,3008,2967,2995,2981,2981,2991,2978,2967,2960,2991,2982,2987,2985,0
3005,2971,2959,2963,2971,2970,2993,2978,2974,2991,2992,2969,2991,2955,2983,2973,2971,2958,2964,2999,2987,2953,2992,2996,2995,2963,2983,2960,2992,2953,2979,2971,2991,2991,2988,2967,3008,2993,2967,3006,2982,2978,2960,2991,2949,3007,2997,2957,2969,2976,2987,2983,2954,2971,2986,2969,2999,2965,2980,2986,2975,2993,2981,2979,2961,2981,2975,2974,2987,2975,2987,2980,2993,2973,2975,2985,2969,2981,2966,2962,2960,3006,2969,2970,2992,2980,2987,2979,2992,2960,2994,2952,2991,2969,2991,2961,2994,2976,2990,0
2984,2976,2983,2982,2960,2990,2973,3004,2968,2967,2983,2999,2975,2991,2973,2995,2961,2963,2992,2987,2970,2998,2957,2992,2994,2982,2990,2989,2977,2969,2971,2998,2960,2995,2960,2978,2998,2961,2985,2977,2965,2981,2949,2982,2975,2979,2969,2978,2970,2968,2977,2973,2992,2975,2980,2965,2995,2976,2945,2991,2956,2998,2969,2999,2969,2978,2970,2999,2989,2957,2993,2974,2983,2987,2971,2971,2980,2965,2969,2960,2980,2951,2999,2999,2974,2976,2972,2958,2999,2967,2963,2983,2991,2983,2987,2983,2987,2960,2979,0
2983,2969,2993,2991,2976,2987,2963,2976,2989,2987,2981,2967,2989,2977,2981,2987,2977,2957,2986,2971,3008,2959,2970,2969,2988,2983,2980,2977,2996,2962,2995,2960,2962,2979,2963,2982,2973,2983,2969,2979,2971,2982,2991,2960,2982,2986,2981,2987,2991,2990,2971,2978,2979,2992,2975,2992,2964,2973,3001,2960,2987,2978,2982,2963,2995,2976,2991,2969,2987,2968,2992,2974,2979,2960,2960,2998,3003,2957,2993,2966,2994,2953,2981,2975,2993,2957,2992,2992,2989,2975,3011,2960,2983,2975,2998,2971,2983,2983,2993,0
2992,2982,2989,2992,2979,2970,2986,2971,3002,2960,2998,2974,2982,2982,2990,2993,2965,2969,2983,2962,2990,2988,2983,2998,2973,2960,3001,2985,2992,2968,2992,2975,2975,2971,2979,2995,2965,2998,2965,2992,2986,2986,2978,2993,2977,2999,3006,2974,2960,2994,2964,2969,2977,2976,2972,2995,2977,2992,2979,2997,2962,2982,2983,2992,2973,2971,2997,2976,2991,2993,2964,2991,2983,2990,2977,2975,2981,2992,2983,2981,2979,2961,2994,2965,2983,2978,2979,2987,2977,2965,2975,2992,2990,2960,2981,2973,2973,3011,2994,0
2963,2991,2968,3009,2981,2992,2985,2958,2985,2961,2999,2962,2991,2960,2995,2981,3003,2991,2975,2979,2992,2975,2998,2969,3013,2979,2986,2997,2977,2970,2965,3007,2972,2999,3003,2984,2955,2992,2979,2989,2966,2976,2991,3006,2970,3003,2963,2963,2991,2965,2986,2970,2997,2968,2999,2979,2970,2960,2992,2980,2997,2974,2995,2967,2965,2995,2975,2991,2981,2989,2987,2977,3008,2992,2992,3003,2996,2997,2981,2977,2976,2989,2959,3014,2960,2999,2979,2989,2997,2974,2997,2963,2992,2973,2977,2991,2992,2977,2993,0
3005,2999,2966,2986,2960,2986,2989,2957,2990,2986,2994,2966,2990,2960,2989,2990,2964,2992,2950,2989,2981,2956,2987,2983,2989,2985,2983,2966,2991,2967,2979,2982,2959,2987,2953,2970,2970,2961,2987,2977,2960,2993,2960,2955,2950,2983,2961,2994,2982,2979,2960,2967,2985,2967,2995,2961,2991,2977,2974,2999,2957,2979,2992,2966,2973,3006,2978,2969,2991,2993,2965,2975,2986,2980,2992,2975,2991,2992,2961,2981,2995,2992,2942,2996,2947,2999,2976,2995,2981,2975,2985,2973,2979,2989,2959,3006,2999,2960,2990,0
2960,2963,2966,2979,2992,2971,2998,2957,2987,2979,2990,2973,2987,2981,2990,2979,3003,2961,2979,2965,2993,2972,2960,2962,3007,2985,2975,2978,2981,3007,2981,2987,2972,2969,2999,2969,2994,2975,2987,2965,2993,2983,3002,2974,2960,2962,2960,2974,2989,2977,2953,2978,2987,2974,2982,2965,2992,2965,2966,2977,2961,2992,2960,2983,2971,2990,2979,3002,2984,2995,2969,2999,2977,2975,3003,2985,2990,2967,2983,2989,2994,2967,2969,2983,2992,2986,2979,3006,2961,2986,2995,2960,2993,2970,2993,2978,2960,2992,2965,0
3003,2962,2969,2962,2998,2970,2992,2960,2983,2992,2978,3004,2973,2983,2997,2967,2995,2992,2965,3008,2969,2991,2969,2976,2989,2975,2979,2986,2977,2992,2990,2969,2988,2987,2986,2972,2989,2980,2987,2992,2973,2991,2995,2970,3005,2960,2975,2995,2970,2991,2975,2983,2970,3007,2974,2965,2999,2961,2987,2973,2978,3006,2965,3002,2985,2995,2976,2987,2987,2981,2975,2975,2981,3001,2981,2992,2959,2987,2978,2998,2998,2997,3002,2967,2983,2973,2993,2972,2973,2981,2983,2971,2982,2989,2977,2997,2983,2999,2970,0
3008,2964,2973,2986,2966,2994,2992,2967,2975,2995,2981,2979,2971,2967,2965,2998,2975,2992,2981,2966,2995,2960,2995,2992,2976,2957,2986,2960,3003,2978,2994,2963,2992,2992,2956,2960,2992,2971,2994,2986,2965,2982,2991,2977,2969,2990,2961,2998,2999,2967,2992,2994,2977,2960,2971,3007,2976,2973,2992,2980,2985,2973,3002,2989,2977,2995,2990,2992,2981,2965,2977,2974,2992,2979,2986,2996,2969,2977,2987,2987,2990,2964,2977,2967,2991,2967,2999,2991,2998,2983,2997,2960,2989,2963,2951,2995,3006,2959,2960,0
2989,2962,2991,2975,2954,2998,2971,2992,2949,2992,2992,2970,2993,2958,2977,2987,2959,2963,2999,2987,2970,2992,2976,2987,2960,2994,2975,2960,2981,2960,2998,2997,2975,2960,2997,2961,2990,2991,2969,2979,2953,2965,2991,2983,2990,2980,2965,2987,2971,3013,2957,2997,2962,2975,2961,2979,2989,2982,2951,3003,2992,2982,2993,2957,2983,2965,2983,2992,2989,2997,3007,2967,2985,2977,2976,2991,2997,2965,2990,2975,2994,2947,3003,2970,2982,2958,2987,2995,2958,2967,3002,2996,2975,2982,2992,3007,2991,3007,2983,0
2995,2973,2971,2981,2978,2972,2986,2971,3010,2983,2975,2980,2978,2975,2973,2989,2972,2987,2975,2982,2987,2960,2987,2981,2973,2994,2991,2970,2976,2983,2975,2987,2973,2970,2974,2990,2971,3011,2957,2992,2994,2965,2998,2974,2969,2990,2967,2975,2992,2972,2979,2993,2993,2992,2978,2983,2973,2975,2981,2973,2991,2980,2961,2991,2976,2983,2989,2971,2982,2972,2998,2983,2973,2992,3008,2974,2992,2985,2992,2983,2975,2995,2981,2981,2992,2995,2983,2991,2973,2973,2983,2960,2970,2973,2975,2975,2992,2975,2967,0
2992,2976,2973,2994,2965,2993,2993,2967,2975,2979,2971,2979,2977,3002,2992,2960,2998,2977,2983,2973,3007,2984,2976,2983,2975,2983,2976,2972,2975,2960,2995,2979,2978,2969,2991,2970,2973,2971,2981,2987,2986,2978,2961,2997,2990,2968,2992,2959,2998,2999,2981,2979,2993,2975,2991,3003,2954,2977,2995,2965,2993,2979,2991,2975,2994,2977,2989,2997,2965,2991,2978,2994,3003,2988,2979,2981,2975,2982,2991,2947,2971,2970,2975,2989,2963,2983,2966,2995,2987,2975,2987,3001,2977,2960,2999,2987,2973,2962,3007,0
2983,2985,2998,2992,2985,2989,2987,2992,2969,2981,3008,2967,2995,2974,2976,2969,2983,2992,2981,3013,2960,2961,2992,2969,2987,2975,2992,2974,2990,2976,2961,2994,2966,2993,2992,2991,2962,2979,2973,2965,2991,2963,2992,2993,2970,2996,2970,2990,2990,2986,2993,2967,2960,2993,2965,2977,2970,2992,2982,2986,2995,3007,2991,2973,2989,2990,2961,2993,2966,2995,2971,3009,2971,2977,2970,2995,2972,2999,2974,3003,2960,3007,2996,2970,2992,2973,2975,2975,2979,2978,2972,2971,2975,2986,2993,2978,2983,2959,2992,0
2992,2961,3005,2993,2957,2992,2983,2969,2975,2973,2979,2976,3006,2967,2966,2995,2975,2977,2985,2991,2975,2981,2970,3003,2964,2992,2978,2984,2973,2959,2978,2995,2965,2960,2989,3007,2992,2956,2995,2975,2991,2961,2975,2981,2966,2983,2992,2970,2985,2986,2992,2976,2969,2984,2973,3003,2969,2993,2955,2994,2972,2992,2975,2978,3005,2982,2954,2994,2975,2967,2998,2999,2983,2973,2979,2994,2966,2989,2989,2959,2999,2969,2989,2963,3003,2977,2989,2961,2997,2985,2971,2975,2999,2957,2975,2964,2987,2960,2981,0
2997,2987,2981,2968,2987,2998,2969,2992,3005,2967,2973,2973,2979,2995,2983,2973,2964,3005,2973,2997,2990,2971,2970,2994,2995,3002,2988,2975,2960,2989,2977,2975,2977,2974,2977,3004,2978,2982,2974,2975,2993,2986,2992,2965,2998,2985,2992,2982,3003,2989,2964,3001,2991,2973,2992,2977,2978,2970,2988,2991,2981,2993,2965,2993,2988,2971,2975,2987,2989,2982,2973,2999,2972,2989,2961,2993,2975,2981,2987,2978,2993,2962,2986,2967,2975,2961,2995,2978,2983,2998,2973,2961,2994,2987,2971,2989,2976,2991,2977,0
2991,2974,2991,2971,2979,2967,2988,2997,2976,2991,2973,2991,2969,2971,2991,3005,2962,2993,2967,3005,2964,2994,2960,2991,2961,2998,2963,2997,2978,2981,2999,3005,2989,2992,2973,2962,2992,2972,2988,2989,2992,2963,2957,2993,2973,2991,2993,2979,2992,2967,2979,2971,2982,2991,2986,3001,2969,2987,2967,2985,2987,2977,2994,2973,2988,2969,2982,2975,2991,2976,2989,2995,2974,2997,2961,2979,2992,2961,2990,2966,3008,2965,2992,2965,2992,2951,2980,2992,2956,3003,2979,2981,2965,2999,2974,2982,2979,2978,2995,0
2953,2978,2973,3007,2965,2981,2975,2991,2954,2992,2969,2969,2992,2971,2953,2955,2992,2957,3010,2975,2977,2961,2989,2997,2979,2994,2992,3015,2955,2987,2978,2990,2991,2992,2963,2975,2976,2983,2972,2975,2990,2983,2992,2966,2972,2957,2966,2963,2982,2997,2973,2972,2995,2997,2960,2994,2965,2992,2977,2991,2987,2982,2992,2999,2957,2959,2988,2971,2970,2912,3024,2992,2963,2992,2975,3006,2964,2988,2957,2991,2985,2958,2995,3003,2986,2971,3003,2987,2982,2963,3006,2960,2959,2999,2954,2991,2992,3021,2965,0
2991,2962,2992,2976,2992,2960,2989,3003,2990,2992,2954,2987,2979,2993,2998,2971,2941,2991,2955,2983,2976,2991,2993,2983,2981,2973,2986,2996,2983,2995,2961,2996,2951,2994,2969,2971,2974,2962,2991,2958,2991,2955,2992,2959,2973,2960,2976,2964,2992,2975,2963,2970,2960,2988,2987,2983,2982,2983,2978,2995,2975,2997,2957,2982,2959,2987,2992,2973,2971,2999,2973,2965,2992,2997,2969,2995,2962,2991,2973,2975,2992,2979,2991,2991,2996,2993,2975,2972,2990,2977,2999,2975,2979,2983,2982,2971,2978,2961,2995,0
2950,2973,2995,2992,2995,2995,2987,2991,2982,2981,2960,2992,2961,2995,2971,2962,2991,2999,2975,2981,2987,2962,2994,2993,2983,2977,2952,2981,2991,2958,2977,2983,2992,2967,2987,2960,2961,3005,2967,3006,2963,2999,2973,2971,2989,2979,2991,2962,2987,2987,2980,2985,2960,2987,2973,2979,2974,2977,3008,2970,2992,2974,3009,2960,2993,2991,2979,2982,2969,2997,2966,2992,2971,2992,2971,3003,2961,2995,2960,2974,2992,2982,2987,2995,3004,2973,2975,2971,2971,2992,2960,2983,2976,2993,2987,2987,2998,2974,2991,0
2964,2993,2953,3002,2971,2977,2987,2973,2992,2977,2991,3005,2977,2999,2979,2987,2992,2977,2990,2970,2982,2962,2993,2965,2975,2985,2992,2975,2988,2961,2982,2975,2970,2981,2978,2997,2969,2969,2962,2993,2979,3003,2964,2981,2992,3008,2964,2981,2981,2988,2979,2993,2986,2991,2961,3003,2965,2982,2976,2983,2970,2981,2983,2982,2986,2983,2987,2981,2987,2966,3011,2962,2995,2973,2986,2970,2989,2979,2992,2965,2983,2980,2971,2993,2960,2985,3008,2974,2994,2979,2977,2983,3007,2965,3003,2980,2980,2972,3004,0
2961,2993,2975,2978,2992,2987,2976,3002,2961,2977,2992,2993,2981,3002,2959,2985,2955,2961,2994,2957,2993,2961,2995,2977,2992,2965,2978,2987,2992,2978,3007,2964,2966,2991,2991,2973,2998,2979,3005,2994,2997,2992,2969,2997,2996,2991,2992,2972,2992,2979,2997,2960,2992,2962,2969,2995,2974,2990,2979,2983,2961,2997,2961,2967,2999,2956,2992,2976,2992,2997,2993,2971,2992,2981,2962,2990,2972,2985,2974,2992,2976,2998,2976,2958,2998,2969,2999,2963,2993,2963,3003,2971,2992,2973,3003,2974,2981,2983,2983,0
2973,2976,2960,2999,2949,2998,2972,2971,2986,2953,2987,2969,3003,2981,2981,2963,2983,2986,2975,2979,2963,2973,3003,2955,3006,2979,2979,2960,2991,2963,2997,2976,2992,2967,2979,3008,2987,2955,2994,2977,2983,2977,2960,2995,2962,2999,2992,2994,2959,2992,2979,2967,2990,2983,2991,2995,2971,2980,2960,2978,2967,2973,2985,2975,2995,2981,2971,3008,3006,2974,2978,2978,2989,2960,2982,2965,3002,2960,2967,2981,2982,2963,3006,2965,2973,2995,2961,2967,2991,2978,2992,2970,2997,2959,2960,2981,2970,2989,2971,0
2999,2995,2967,2977,2973,2977,2999,2995,2967,2992,2967,2981,2977,2994,2998,2962,3007,2966,2990,2967,2993,2960,2995,2994,2979,2980,2979,2984,2989,3003,2992,2993,2990,2985,2991,2971,2992,2966,2999,2979,2999,2994,2958,2957,3008,2991,2961,3005,2992,2965,2993,2974,2998,2976,2993,2985,2993,2965,2981,2961,2992,2976,2995,2969,2992,2956,2983,2997,2961,2987,2980,2957,2961,3002,2965,2993,2993,2977,2991,2981,2989,2981,2973,2987,2970,2973,2995,2967,2983,2960,2999,2969,2989,2986,2962,2964,2991,2960,2999,0
2968,2994,2975,2991,2991,2988,2978,2983,2992,2999,2969,2970,2975,2976,2991,2985,2998,2966,2994,2992,3002,2971,2991,3003,2966,2992,2968,2993,2980,2999,2979,2991,2987,2994,2975,2987,2989,2985,2969,2993,2992,2969,2992,2970,2989,2960,2980,2995,2985,2970,2997,2971,2969,3002,2993,2979,2997,2960,2979,2981,2994,2989,2974,2987,2993,2963,2967,2995,2962,2999,2974,2992,2967,2983,2966,2969,2980,2980,2975,2983,2957,2965,2991,2999,2965,2986,2989,2983,2987,2963,2993,2990,2985,2992,2983,2992,2981,3010,2963,0
2967,2969,2990,2970,3005,2963,3006,2979,2991,2975,2999,2972,2997,2987,2975,2979,2978,2994,2970,2992,2964,2992,2996,2961,2960,2992,2974,2992,2966,2990,2960,2995,2971,2992,2971,2970,2983,2991,2983,2975,2964,3007,2971,2987,2993,2963,2997,2960,2977,2983,2960,2998,2967,2977,2989,2983,2978,2963,2992,2993,2991,2975,2993,2965,2971,2992,2979,2991,2985,2992,2980,2960,2958,2971,2960,2989,2974,2975,2992,2997,2990,2963,2992,2976,2969,2992,2969,2973,3008,2973,2970,2983,2994,2966,2987,2995,2985,2986,2973,0
2978,2969,2989,2988,2979,3017,2973,2984,2954,2996,2960,2969,2993,2975,2998,2973,2979,3003,2974,2997,2968,2997,2959,2979,2970,2989,2990,2961,2992,2981,2974,2994,2992,2981,2973,2979,2992,2970,2977,2973,2983,2961,2989,2955,2966,2995,2949,2995,2961,2983,2959,3003,2992,2995,2965,2999,2975,2992,3018,2970,2983,2966,3002,2960,2991,2971,2971,2995,2979,2978,2991,2977,2969,2978,2989,2983,2991,2977,2957,3007,2961,2973,2993,2960,3009,2993,2973,2987,2990,2995,2977,2981,2955,2995,2987,2982,2992,2994,2971,0
2992,2971,3007,2967,2978,2966,2978,2991,2975,2976,2979,2992,2991,2966,2992,2957,3001,2999,2962,3003,2972,2985,2976,2960,2992,2978,2979,2992,2960,2998,2978,3001,2999,2971,2967,2989,2986,2992,2972,2978,2991,2986,2985,2995,2971,2986,2973,2977,2995,2975,2979,2964,2989,2985,2965,2998,2989,2981,2960,2963,2973,2992,2990,2962,3003,2973,2999,2972,2982,2987,2975,2979,3002,3002,2960,2989,2992,2965,2990,2967,3007,2963,2986,2975,2982,2975,2985,2969,2973,2973,2990,2993,2985,2973,2982,2989,2986,2991,2993,0
2992,2989,2998,2986,2974,2978,2994,2990,3008,2965,2998,2975,2973,3001,2979,2966,2990,2975,2967,2993,2975,3003,2974,3002,2974,2992,3003,2963,2997,2967,2979,2975,2993,2960,2992,2992,2954,2992,2994,2976,2989,2960,2985,2977,2992,2985,2973,2990,2982,2960,3007,2977,2991,2971,2982,2999,2987,2967,3007,2967,2982,2969,2965,2977,2978,2973,2981,2987,2979,2993,2979,2978,2960,2992,2960,2994,2983,2963,2977,2992,2971,2970,2992,2982,3001,2974,2967,2973,2997,2960,2960,2990,2979,2986,2985,2975,2985,2955,2998,0
2985,2971,2992,2969,2987,2978,2978,2991,2987,2982,2957,2973,2986,2971,2990,2961,2991,2962,2965,2992,2992,2983,2967,2992,2970,2995,2964,2966,2996,2962,2999,2964,2979,2959,2992,2980,2961,2990,2971,2991,2992,2970,2975,2981,2992,2978,2992,2972,2987,2979,2995,2978,3011,2975,2975,2990,2983,3009,2989,2999,2978,2974,2990,2974,2973,2995,2975,2990,2971,2970,2983,2964,2991,2978,2970,2991,2959,2965,2977,2979,2978,2975,2986,2966,2998,2979,2985,2998,2957,3002,2960,2982,2991,2979,2957,2992,2992,3005,2979,0
2969,2989,2997,2955,2981,2959,2993,2992,2959,2992,2953,2991,2961,2991,2993,2961,2985,2981,2951,3007,2991,2949,2955,2990,2961,2977,2981,2997,2960,2991,2951,2995,2964,2967,2958,3002,2978,2992,2973,2977,2960,2967,2962,2974,2990,2965,2992,2944,2981,2962,2999,2973,2970,2985,2977,2979,2987,2960,2981,2959,2992,2960,2992,2992,2963,2990,2981,2997,2973,2995,2992,2960,3002,2971,2991,2961,2989,2972,2989,2985,2981,2991,2973,2967,2954,2993,2957,2995,2960,2999,2978,2991,2961,2968,2992,2974,2987,2975,2985,0
2992,2961,2989,2972,2975,2963,2960,2999,2957,2987,2967,2994,2977,3003,2992,2965,2986,2987,2997,2974,2982,2982,3003,2987,2975,2960,2992,2987,2979,2967,2990,2966,2971,2982,2967,2972,2995,3005,2982,2996,2975,2987,2978,2992,2970,2991,2979,2998,2982,2999,2969,2967,2989,2977,2987,2971,2997,2971,2986,2975,2966,2991,2975,3002,2992,2990,2999,2975,2992,2963,2994,2967,2982,2963,2999,2982,2967,2991,2954,2961,2987,2970,2988,2986,2993,2963,3003,2971,2960,2997,2983,2992,2970,2971,2973,2975,2974,2989,2987,0
2991,2992,2977,2983,2977,2997,2977,2993,2968,2979,2982,2960,2993,2975,2983,2978,2986,2976,2992,2977,2991,2960,2993,2981,2992,2953,2987,2967,2992,2962,3007,2965,2961,2987,2986,2998,2999,2982,2992,2960,2993,2970,2983,2972,2981,2999,2981,2972,2967,2964,2992,2971,2993,2995,2973,2992,2960,2992,2979,2973,2973,2967,2993,2992,3007,2998,2995,2987,2983,2967,2983,2980,2976,2971,2990,2976,2999,2971,2999,2969,2970,2993,3003,2975,2997,2964,2992,3005,2969,2997,2979,2992,2977,2993,2981,2975,2991,2985,2993,0
2981,2992,2991,2961,2975,2992,2971,2997,2992,2973,2967,2993,2971,2981,2975,2979,2963,2967,2962,2979,2969,2999,2976,2999,2971,2966,2981,2971,2981,2983,2993,2982,2971,2960,2995,2977,2966,2979,2978,2983,2998,2971,2992,2991,2992,2964,2983,2957,2990,2972,2993,2973,2966,3009,2991,2960,2999,2966,2982,2977,2963,2977,2987,2986,2970,2963,2975,2978,2976,2992,2991,2960,2999,2955,3002,2960,3007,2970,2989,2992,2973,2983,2999,2999,2967,2998,2972,2965,2990,2989,2989,2992,2975,2989,2970,2973,2975,2975,2976,0
2990,2968,3003,2990,2990,2985,2989,2992,2976,2981,2987,2992,2995,2972,2990,2989,2962,2991,2962,2962,2986,2961,2991,2970,2965,3011,2959,2999,2979,2992,2994,2954,2996,2960,2988,2977,2995,2971,2966,2994,2992,2960,2992,2977,2979,2995,2999,2965,2945,3001,2960,2993,2994,2998,2992,2980,2993,2965,2973,2995,2989,2961,2989,2965,2998,2949,2995,2989,2974,2961,2995,2963,2992,2964,2999,2960,2990,2961,2998,2999,2991,2972,2982,2979,2986,2966,2986,3011,2992,2960,2960,2987,2971,2975,2979,2978,2999,2959,2981,0
2968,3001,2975,2967,2982,2989,2964,2964,2993,2960,2969,2999,2975,2999,2961,2991,2974,3007,3006,2962,2977,2979,2967,2994,2971,2977,2983,2960,2973,2976,2951,2980,2975,2962,2987,2966,3008,2960,2986,2993,2979,2992,2992,2981,2967,2999,2973,2988,2970,2992,2995,2980,2983,2976,2992,3006,2990,2990,2995,3008,2967,2989,2974,2994,2967,3007,2964,2997,2989,2983,2961,2977,2992,2970,3006,2969,2961,2992,2976,3003,2977,2974,2992,2979,3005,3007,2992,2982,2992,2959,2991,2967,2979,2967,2983,2995,2973,2975,2970,0
2981,2974,2958,3001,2966,2983,2998,2967,2997,2960,2979,2966,2990,2979,2971,2991,2969,2987,2988,2989,2993,2963,2990,2976,2976,2973,2992,2974,2999,2999,2981,2991,2959,2992,2985,2992,2977,2992,2973,2960,2995,2978,2971,2986,2963,2992,2969,2995,3010,2975,2981,2976,2974,2995,2982,2985,2998,2975,2981,2992,2967,2983,2980,2983,2963,2963,3003,2977,2990,2974,2995,2976,2999,2972,3009,2982,2992,2992,2975,2969,2981,3005,3007,2967,2988,2960,2994,2971,2992,2969,2986,2975,2994,2987,2993,2970,2999,2962,2977,0
2991,2987,2976,2983,2967,2989,2973,2997,2975,2991,2978,2991,2970,2987,2999,2960,2983,2957,2969,2982,2982,2966,2992,2967,3003,2967,2992,2980,2989,2999,2977,2976,2973,2986,2979,2999,2962,2962,2992,2971,2959,2982,2995,2971,2987,2979,2981,2950,2991,2981,2992,3003,2995,2985,2965,3004,2965,2982,2979,2987,2987,2975,2979,2995,3008,2976,2979,2973,2991,2987,2975,2992,2990,2999,3006,2972,2988,2991,2975,2996,2987,2970,2961,3005,2977,2961,2983,2963,2997,2974,2993,2965,2997,2977,2989,2960,2977,3005,2989,0
2944,2995,2984,2992,2981,2991,2972,3001,2969,2977,3014,2963,2949,2962,2976,2979,2948,2992,2964,2992,2983,2980,2957,2986,2980,2983,2972,2971,2991,2963,2981,2973,2993,2967,2994,2977,3003,2945,2947,2982,2957,2973,2969,2978,2958,2991,2957,2970,2960,2980,2973,2980,2987,2953,2973,2973,2969,2961,2987,2956,2989,2963,2977,2992,2973,2990,2973,2981,2994,2978,2998,2977,2997,2950,2993,2955,2969,2960,2999,2964,2967,2959,2989,2991,2953,2987,2971,2997,2980,2976,2979,2975,2990,2969,2992,3011,2966,3008,2955,0
2979,2960,2995,2977,2973,2970,2986,2965,2986,2962,2998,2976,2982,2970,2979,2968,2975,2967,2993,2960,2975,2969,2990,2958,2994,2961,2995,2981,3002,2960,2991,2950,2992,2992,2992,2966,2992,2981,2975,2983,2992,2971,2983,2989,2976,2993,2977,2976,2992,2977,2964,2989,2973,2989,2990,2994,2960,2991,2959,2993,2971,3003,2949,2947,2993,2969,2994,2995,2975,2974,2958,2971,2986,3011,2993,2957,2995,3003,2969,2981,2980,2962,2982,2958,2969,2992,2999,2960,2978,2992,2982,2973,2989,2968,2992,2960,2982,2986,2988,0
2959,2985,2991,2964,2992,2967,2982,2999,2968,2973,2971,2975,2970,2975,2994,2961,2989,2992,2967,2989,2965,2995,2960,2999,2987,2971,2985,2969,2982,2981,3003,2992,2974,2994,2984,2986,3011,2970,3003,2983,2979,2979,2989,2971,2971,2966,2992,2960,2998,2975,2998,3006,2962,2969,2989,2983,2987,2981,2991,2993,2966,2999,2971,2979,2980,2997,2981,2998,2974,2996,2987,3003,2999,2981,2992,2975,2960,2973,2983,3005,2979,2980,2971,2981,2985,2979,3006,2980,2964,2999,2982,2967,2975,2982,2991,2981,2986,2965,2985,0
2962,2987,2993,2965,2971,3006,3007,2991,2992,2950,2975,2986,2956,2965,2977,2973,2989,2993,2977,2955,2993,2960,2994,2989,2991,2989,2992,2959,2997,2960,2993,2992,2962,2989,2970,2992,2993,2973,2980,2955,2987,2964,3002,2964,2955,2965,2975,2965,2965,2999,2962,2960,2992,2990,2979,2969,2971,2948,2987,2983,2982,2948,2994,2963,2960,2977,2959,2995,2975,3007,2967,2992,2961,2994,2961,2994,2958,2992,2992,2967,2981,2992,2971,2992,2977,2962,2962,2987,2992,2990,2992,2970,2981,2977,2981,2989,2972,2991,2974,0
2991,2980,2997,2962,2975,2976,2971,2979,2981,2992,2970,2969,2987,2975,2992,2976,2957,2965,2973,2967,2981,2957,2992,2981,2986,2989,2974,2981,2978,2960,2992,2999,2959,2976,2962,2994,2986,2961,2990,2965,2954,2982,2956,2965,2986,2985,2967,2990,2976,2975,2992,2983,2970,2970,2993,2966,2981,2985,2971,2973,2966,2992,2991,2962,2999,2974,2994,2976,2983,2999,2993,2992,2969,2955,2976,2997,2967,3002,2963,2987,2973,2986,2979,2975,2991,2990,2965,2995,2967,2969,2990,2992,2989,2994,2975,2992,2992,2999,2964,0
2955,2961,2704,2981,2973,2983,2979,2986,2972,3006,2965,3005,2963,2970,3003,2978,2956,2994,2964,2989,2974,2951,2991,2957,2969,2998,2960,3002,2995,3004,2977,2957,2995,2977,2959,3006,2970,2991,2960,2996,2983,2973,2975,2967,2977,2984,2960,2978,2991,2991,2970,2962,2989,2998,2966,2998,3007,2986,2966,2995,2975,2985,2975,2993,2981,2998,2970,3008,2966,2976,2987,2962,2960,2992,2959,2994,2961,2995,2991,2985,2998,2975,2977,2962,2960,2982,2955,2991,2967,2980,2991,2995,2963,3001,2960,2991,2972,2987,2960,0
2990,2991,2978,2989,2974,2963,2992,2958,2994,3007,2983,2969,2991,2989,2983,2973,2986,2971,2978,2967,2971,2961,3003,2972,2961,2989,2961,2992,2976,2966,3003,2973,2982,2973,2961,2983,3008,2969,2972,3006,2975,2994,2962,2997,2991,2989,2977,2964,2995,2953,2981,2960,2978,2989,2960,2989,2960,2961,2991,2992,2982,2989,2958,2974,2963,2961,2995,2992,2992,2975,2987,2979,2975,2982,2970,2992,2957,2992,2975,2995,2990,2992,2975,2978,2987,2971,2965,2991,2980,2956,2961,2983,2958,2990,2997,2965,2990,2960,2986,0
2990,2986,2977,3002,2970,3003,2950,3002,2993,2963,3003,2974,2999,2959,2993,2990,2967,2987,2961,2992,2976,3003,2996,2960,2960,2999,2979,2991,2965,2966,2981,2961,2963,2978,2978,2989,2999,2991,2969,2982,2967,2969,2987,2992,2975,2993,2960,2995,2960,2993,2969,2989,2954,2977,2975,2960,2998,2970,2971,2986,2990,2996,2973,3002,2960,3005,2960,3009,2960,2992,2960,2997,2987,2987,2978,2976,2983,2991,2960,2959,2992,2991,2967,2977,2990,2966,2991,2980,2994,2975,2995,2966,2997,2976,2967,2971,2999,2964,2978,0
2975,2975,2992,2981,2991,2986,2974,2989,2984,2964,3008,2970,2976,2960,2993,2966,2999,2971,2995,2960,2976,2979,2989,2993,2977,2989,2989,2987,2997,2985,3003,2969,2989,2954,2981,2975,2987,2995,2977,2982,2990,2969,2992,2950,2983,2970,2997,2976,2958,2994,2969,3013,2989,2986,2998,2964,2977,3010,2979,2962,3003,2987,2965,2986,2967,2985,2994,2967,2983,2970,2985,2992,2954,2973,2951,3002,2962,2994,2979,2995,2966,2970,3006,2968,2979,2957,2983,2956,2970,2960,2965,2992,2969,2994,2987,2975,2978,2986,2984,0
2981,2982,2946,2952,2989,3015,2970,2990,2965,2980,2983,2958,2992,2965,2987,2978,2995,2965,2962,2992,2988,2990,2965,2976,2987,2982,2995,2973,2983,2976,2971,2989,2991,2953,2997,2960,2993,2973,2979,2978,2973,2989,2960,2985,2955,3015,2963,2976,2995,2992,2965,2969,2992,2995,2993,2970,2998,2974,2991,2981,2967,2969,2980,2954,2997,2975,2971,2986,2983,2961,2966,2976,2983,2989,2975,2983,2961,2957,2986,2972,2959,2983,2989,2959,2978,2995,2960,3002,2953,2975,2995,2975,2975,2961,2983,2961,2963,2999,2970,0
2993,2939,3006,2971,2975,2959,2988,2988,2976,2996,2981,2962,2979,2992,2993,2993,2963,2992,2969,2975,2979,2962,2994,2960,3005,2994,2945,2952,3010,2993,2969,2976,2978,2969,2960,2950,2974,2980,2961,2992,2953,2977,3007,2995,2987,2963,2965,2997,2979,3003,2991,2962,2994,2960,2992,2992,2976,2965,2963,2979,2978,2998,2945,2982,3003,2974,2987,2957,2967,2977,2992,2957,2981,2969,2983,2979,2971,2978,2982,2990,2968,2992,2977,2982,2992,2973,2960,3003,3011,2991,2973,2990,2987,2990,2977,2986,2961,2992,2959,0
2981,2965,2995,2957,2994,2977,2965,3002,2977,2992,2956,2965,2983,2974,3003,2967,2977,2994,2985,2992,2970,2988,2960,3003,2974,2961,2992,2961,2978,2999,2963,2992,2966,2995,2987,2978,2993,2993,2960,2960,2992,2966,3008,2959,2983,2959,2998,2986,2965,2993,2992,2978,2977,2992,2967,3008,2960,3006,2961,3001,2998,2967,2999,2958,2995,2977,2995,2963,2960,3003,2987,2965,2999,2962,2998,2967,3013,2957,2973,2990,2970,2974,2995,2973,3010,2965,3002,2997,2975,2973,2966,2991,2963,3008,2974,2983,2958,2963,2999,0
2978,2995,2973,2981,2977,2960,2985,2970,2957,2991,2960,2986,2995,2992,2975,2990,2977,3007,2983,2978,3006,2961,2989,2969,2960,2960,2989,2960,2983,2992,2983,2960,2989,2974,2993,2990,2976,2998,2960,2992,2957,3003,2967,2993,2967,2960,2980,2993,2971,2986,2992,2987,2952,3007,2991,2963,3010,2971,3005,2971,2995,2979,2987,2963,2987,2971,2997,3003,2969,2960,3006,2970,2991,2967,2985,2970,2998,2990,2983,2987,3003,2990,2960,2966,2953,2977,2960,2992,2965,2983,2976,2987,2978,2989,2971,2990,2992,2981,2994,0
2967,2999,2970,2991,2983,3004,2983,2989,2966,2982,2983,2973,2970,2985,2971,2989,2974,2963,2964,2979,2962,3005,2969,2967,3007,2960,2953,2995,2969,2978,2976,2971,2977,3007,2969,2987,2940,2996,2966,3010,2976,2991,2955,2999,2986,2995,2973,2991,2991,2975,2981,2979,2992,2987,2977,2978,2991,2989,2972,2981,2998,3008,2971,2991,2960,2981,2989,2961,2999,2981,2961,2995,2974,2965,2978,2964,2974,2994,2977,3002,2960,2996,2946,2973,2966,2999,2977,2990,2960,2978,2982,2986,2960,2966,2981,2992,2960,2990,2960,0
2992,2946,3002,2953,2999,2974,2957,2993,2961,2960,2962,2994,2981,2987,2971,2975,2989,2972,2992,2965,2966,3006,2957,3001,2953,2985,2983,2986,2959,2973,2945,2991,2960,2989,2975,2975,2952,2998,2991,2983,3012,3005,2981,3001,2960,2995,2970,2990,2961,2959,2983,2971,2994,2992,2972,3009,2992,2982,2954,3008,2986,2987,2985,2970,2983,2995,2966,2999,2960,2992,2967,2995,2971,2983,2971,2995,2973,3015,2950,3011,2966,2961,2981,2957,2978,2987,2963,3002,2971,2973,2992,3007,2975,2998,2972,2998,2974,2971,2966,0
2989,2991,2989,2986,2975,2981,2986,2991,2983,2981,2975,2966,2969,2990,2999,2951,2949,2975,2960,2987,2963,2981,2990,2955,2983,2948,2992,2956,2987,2971,2998,2981,2957,2987,2974,2965,2967,2983,2959,2994,2963,2955,2977,2970,2983,2985,2983,2973,2960,2991,2951,2982,2989,2987,2963,2991,2999,2986,3003,2961,3011,2991,3003,2983,2966,2987,2962,2998,2974,3005,2981,2975,2971,2992,2966,2976,3008,2966,2995,2954,2995,2979,2992,2983,2967,2981,2990,2982,2975,2997,2979,2987,2983,3009,2979,2987,2960,2965,2947,0
2971,2992,2976,2960,2983,2976,2979,2974,2972,2977,3002,2961,2999,3002,2973,3003,2977,2987,2992,2957,2995,2975,2963,2983,2992,2999,2960,2978,2974,2962,2991,2988,2966,2990,2974,3005,3011,2999,2980,2973,2998,2966,2960,2977,2960,3011,2972,2991,2973,2992,2966,2993,2997,2983,2960,2992,2973,2995,2979,2986,2961,3004,2999,2992,2985,3009,2978,2975,2979,2960,2976,2991,2982,2987,2992,2961,2992,2983,2969,2993,2964,3002,2963,2995,2991,2961,2978,2954,3003,2960,2961,2994,2992,2967,2963,2982,2957,2992,2992,0
2990,2970,2973,2960,2978,2993,2965,2978,2986,2973,2970,2991,2974,2998,2987,2967,2989,2965,2991,2969,2989,2980,2976,2991,2987,2962,2998,2982,2986,2999,2974,2975,2991,2976,2983,2972,2974,2995,2971,2989,2974,2997,2957,2997,2960,2981,2986,2981,2962,2998,2961,2974,2992,2960,2991,2970,2979,2992,2969,2991,2987,2983,2995,2960,2981,2983,2975,2975,2961,2970,3007,2954,2979,2965,2996,2966,2993,2974,2991,2982,2995,2967,2979,2987,2979,2977,2992,2987,2992,2973,2987,2992,2979,2982,2996,2975,2972,2986,2983,0
2992,2999,2982,2976,2964,3003,2949,2995,2990,2983,2995,2989,2960,3007,2966,2992,2978,2995,2963,2994,2967,2995,2960,2992,2987,2989,2962,2997,2960,2995,2963,2992,2972,2987,2961,2996,2973,2999,2966,2992,2970,2991,2979,2983,2975,2986,2965,2987,2999,2969,2975,2997,2990,2941,2960,2993,2967,2979,2982,2967,2993,2989,2985,2956,2992,2964,2967,2983,2950,3027,2963,2990,2983,2957,3009,2966,2994,2965,2996,2983,2994,2973,2999,2960,2989,2966,2971,2982,2998,2975,2982,2969,2977,2969,3005,2967,2996,2960,2974,0
3009,2962,2992,2981,2991,2994,2972,3007,2992,3006,2975,2955,2973,2975,2965,3006,2993,2999,2950,2970,2963,2999,2987,2981,2950,2991,2960,2960,2993,2970,3002,2966,2953,2992,3005,2972,2994,2992,2990,2979,2981,2980,2960,2953,3024,2945,2992,2950,2998,2952,2977,2969,2985,2970,2991,2960,2989,2974,2958,3006,2997,2989,2969,2971,2977,2992,2958,2999,3005,2976,2993,2961,2958,2957,2958,3005,2960,3002,2965,2991,2962,2990,3006,2966,2992,2974,2992,2997,2975,2989,2999,2991,2986,2960,2993,2957,2976,2994,2983,0
2993,2978,2999,2970,2970,2994,2965,2992,2960,2997,2973,2980,2987,2962,2985,2979,2963,3003,2950,2971,2992,2979,2960,2979,2989,2986,2989,2961,2981,2969,2987,2985,2959,2962,2992,2974,2992,2977,2987,2959,2977,2972,2959,2997,2963,2982,2979,2982,2967,2989,2998,2957,2978,2961,2965,2985,3007,2962,2995,2974,2992,2962,3001,2958,2982,3009,2966,2991,2969,2992,2965,2971,2992,2961,2963,2971,2979,2979,2969,2959,2987,2988,2975,2999,2973,2966,2974,2989,3007,2956,2988,2999,2963,2971,3006,2964,3006,2967,2999,0
2962,2969,2983,2993,3003,2975,2992,2960,2994,2967,2981,2965,2992,2985,2989,2983,2963,2995,2992,2993,2992,2963,2992,2965,2983,2987,2999,2953,2977,2994,3007,2989,2986,2973,2983,2967,2992,2960,2979,2967,2977,2978,2978,2987,2987,2976,2970,2999,2964,2995,2981,2990,2968,2990,2980,2997,2964,2965,2977,2987,2965,3003,2965,2989,2987,2994,2963,2989,2973,2992,2960,3001,2972,2989,2970,2974,2966,2991,2966,2981,2994,2988,2990,2961,2954,2978,2975,2991,2974,2983,2962,2997,2960,2981,2960,2983,2960,2992,2992,0
2976,2977,2991,2961,2981,2992,2992,2969,2990,2992,2998,2992,2983,2989,2983,2981,2979,3006,2970,2971,2992,2961,2970,2965,2997,2957,2992,2983,2962,2965,3008,2995,2963,2964,2979,2972,2990,2978,2974,2987,2971,2987,2976,2975,2985,2986,2967,2991,2977,2993,2995,2965,2992,2987,2971,2995,2960,2993,3006,2962,2947,3011,2973,2962,2995,2959,2990,2961,3003,2960,2995,2994,2985,2961,2998,2970,2991,2969,2995,2982,2971,2994,2961,2994,2971,2992,2957,2982,2960,2990,2960,2961,2991,2977,2982,3005,2971,2982,2961,0
2995,2968,2993,2978,2988,2991,2970,2985,2982,2960,2991,2997,2964,3003,2971,2982,2972,2982,2987,2983,2971,2992,2966,2970,2998,2970,2985,2992,2992,2961,2991,2976,2977,2983,2967,3003,2966,2966,2991,2960,2992,2960,2965,2983,2963,2977,2975,3003,2998,2959,2967,2998,2965,2990,2986,2963,2962,2992,2959,2989,2975,2989,2982,2983,2985,2967,2992,2961,2995,2970,2983,2961,2973,2965,2979,2962,2993,2992,2960,2976,2987,2961,3001,2958,2971,2987,2993,3003,2966,2975,3001,2966,2995,2977,2975,2964,2992,2965,2989,0
2966,2955,2987,2988,2992,2965,2987,3003,2986,2999,2974,2989,2971,2991,2963,2995,2961,2975,3003,2959,2991,2966,2982,2995,2970,2977,2999,2998,2960,2977,3008,2995,2971,2999,2975,2978,2989,2978,2979,2955,2987,2978,2965,2995,2990,2995,2985,2967,2991,2968,2992,2979,2995,3006,2998,2985,2990,2991,2995,2962,2985,2962,2999,2982,2977,2971,2993,2979,2978,2973,2978,2995,2954,2970,2999,2993,2966,2994,2971,2974,2982,3007,2961,2995,2992,2977,2981,2973,2980,2999,2962,3009,2978,2992,2975,2979,2970,2992,2987,0
2974,2995,2986,2968,2957,2992,2962,2962,2987,2961,2980,2981,2991,2985,2991,2970,2961,2992,2981,2983,2965,2977,2965,2987,2975,2991,2971,2989,2965,3005,2960,2992,2961,2961,2983,2966,2991,2969,2993,2963,2992,2960,3010,2969,2976,2971,2983,2995,2975,2975,2987,2974,2989,2967,2998,2983,2977,2995,2998,2975,2997,2992,2979,2961,2974,2978,2965,2987,2979,2977,2997,2965,2992,2973,2993,2977,2960,2987,2983,2980,2990,2983,2992,2961,2967,2967,2981,2988,2979,2966,2975,2961,2999,2971,2995,2992,2992,2967,2999,0
2963,2992,2973,2975,2995,2979,2992,2967,2970,2975,2961,3001,2979,2993,2992,2967,2999,2960,2992,3003,2965,2999,2960,2977,2977,2983,2973,2990,2958,2995,2991,2989,2991,2974,2993,2985,2979,2975,2987,2975,2983,2985,2972,2995,3006,2986,2976,2975,2962,3002,2966,2983,2969,3005,2966,2967,2999,2974,2994,3001,2974,2992,2961,2992,2963,2960,2989,2987,2969,2989,2975,2996,2945,3003,2991,2992,2963,2960,2995,2967,2990,2987,2977,2994,2971,2983,2970,3007,2962,2989,2991,2976,2969,2990,2981,2992,2951,3005,2957,0
2998,2978,2974,2975,2977,2976,2991,2965,2992,2981,2981,2992,2960,2969,2960,2970,2980,2960,2977,2992,2981,2969,2990,2977,2960,2985,2978,2973,2986,2960,2991,2970,2980,2985,2992,2969,2986,2965,3005,2963,2957,2983,2965,2999,2986,2987,2975,2973,2979,2987,2979,3002,2969,2979,2992,2961,2991,2971,2992,2991,2960,2988,2971,2979,2971,2970,2989,2992,2967,2955,2992,2967,2987,2970,2960,3007,2976,2992,2974,2973,2991,2986,2971,2995,2982,2960,2960,3015,2967,2994,2991,2970,2999,2975,2992,2963,3003,2981,2985,0
2998,2989,2985,2982,2987,2996,2959,2999,2966,2992,2976,2986,2966,2960,2975,2989,2996,2977,2978,2982,2971,3002,2987,2981,2985,2977,2992,2987,2997,2983,2987,2976,2993,2973,2987,2993,2981,2999,2965,2992,2967,2973,2987,2969,2974,2978,2967,2985,2991,2975,2993,2961,2979,2978,2994,2991,2978,2979,2992,2965,3003,2970,2966,2992,2971,3003,2980,2985,2963,2994,2969,2975,2992,2955,2998,2962,2979,2992,2973,2969,3001,2982,2965,2993,2962,3010,2991,2974,2987,2976,2986,3006,2967,2989,2960,2987,2977,2974,2992,0
2978,2998,2971,2983,2960,2982,2960,3002,2989,2974,2991,2977,2977,2991,2990,2960,2991,2970,2993,2976,2995,3001,2992,2972,2986,2987,2986,2983,2982,2999,2977,3003,2964,2966,2985,2979,2995,2981,2981,2985,2998,2970,2977,2975,2990,2980,2989,2983,2977,2999,2963,2967,3008,2995,2989,2977,2978,2983,2986,2987,2965,2979,2981,2965,3007,2960,2990,2960,2991,2971,2997,2978,2991,2973,2981,2994,2983,2981,3007,2967,2995,2965,2992,2965,2998,2973,2984,2962,2992,2941,3003,2989,2962,2975,2999,2975,2977,2973,2959,0
2998,2967,3005,2975,2999,2988,2986,2994,2979,3005,2977,2986,2961,2962,2985,2957,2992,2952,3015,2978,2997,2985,2987,2956,2991,2966,3002,2965,2983,2969,2997,2993,2981,2982,2992,2973,2977,2990,3002,2960,2967,2993,2996,3013,2987,2983,2991,2970,3011,2990,2973,2994,2970,3003,3008,2965,2986,2997,2999,2967,2992,2971,2992,2976,2983,2983,2986,2985,2976,3005,2976,2972,3002,2958,2987,2960,2995,2969,3005,2981,2983,2991,2967,2991,2962,3006,2970,2960,2979,2975,2995,2987,2993,2979,2987,3024,2979,2974,2987,0
2976,2961,2979,2960,2992,2979,2956,2994,2974,2983,2960,2944,2992,2965,2992,2960,2991,2945,2991,2960,2999,2961,2978,2992,2966,2977,2982,2979,2988,2981,2990,2961,2994,2993,2960,2985,2950,2986,2983,2964,2985,2960,2995,2967,2973,2971,3005,2977,2975,2963,2959,2963,2991,2981,2968,2986,2983,2972,2982,2994,2961,2992,2992,2944,3003,2998,2960,2999,2977,2963,2974,2987,2971,2985,2991,2973,2971,2981,2998,2991,3007,2998,2959,2957,2996,2971,2981,2975,3007,2972,2981,2993,2974,2991,2965,2994,2960,2983,2992,0
2985,2966,3015,2997,2992,2966,2986,2966,2992,2990,2967,2991,2987,2967,2991,2962,3014,2957,3003,2999,2992,2970,3006,2971,2987,2987,2995,2989,2975,2980,2993,2997,2978,2964,2991,2960,3002,2999,2960,2986,3005,2999,2972,2983,2972,2989,2981,2973,2997,2981,2979,2993,2965,2983,2987,2960,2964,2992,2982,2991,2961,2987,2971,2992,2970,2992,2966,2995,2981,2995,2983,2986,2978,2987,2987,2970,2980,2992,2971,3001,2964,2990,2962,2995,2960,2995,2971,2987,2967,3002,2972,2989,2977,2982,2990,2992,2991,2963,2992,0
2977,2988,2960,2957,2995,2960,3009,3003,2992,3002,2960,2993,2960,2979,2970,2961,2994,2965,3002,2982,2985,2992,2975,2978,2992,3002,2980,2991,2994,2991,2961,3002,2954,2977,2992,2971,2990,2960,3002,2961,2967,3005,3006,2967,2999,2975,2989,2975,2988,2979,2977,2987,2999,2973,2977,2998,2971,2961,2997,2974,2999,2993,2987,2961,2991,2960,2990,2981,2992,2999,2970,2992,2961,2994,2967,2982,2969,2978,2983,2982,2992,2984,2965,3003,2987,2959,2954,2991,2975,2977,2989,2992,2978,2985,2997,2970,2960,2998,2987,0
2991,2978,2992,2977,2988,2989,2992,2975,2972,3008,2979,2998,2961,2989,2979,2992,2961,3013,2967,2992,2961,2972,2967,2965,2992,2955,2972,2991,2983,2987,2969,2983,2961,3003,2993,2949,2992,2961,2999,2972,2979,2983,2961,2963,2992,2989,2970,2963,2991,2979,2964,2994,2974,2965,2995,2989,2981,2962,2992,2966,2992,2992,2967,2967,3003,2963,2995,2975,2983,2979,2971,2973,2960,2994,2973,2992,3003,2967,2970,2999,2983,2975,2965,3001,2973,2997,2978,2992,2971,2989,2991,2982,2966,2994,2976,2967,2980,2960,2982,0
2987,2995,2976,2999,2960,2995,2998,2967,3007,2970,2994,2983,2990,2989,2969,3001,3004,2968,2992,2962,2992,3003,2961,2982,3007,2978,3003,2991,2987,2965,2994,2994,2985,2960,2992,2991,2969,2983,3003,2979,2989,2991,2967,2992,2958,3005,2965,3008,2981,3006,3007,2960,2993,2966,2992,2980,2991,2981,2977,2991,2975,2986,2991,2971,3006,2953,2994,2971,2992,2967,2993,2992,2982,2989,2996,2977,2979,2992,2979,3001,2964,2992,2967,2992,2975,2985,2971,2998,2974,2987,2961,2993,2997,2984,2992,2979,2992,2987,2990,0
2972,2960,3007,2998,2992,2971,2993,2985,2992,2990,2985,2971,2992,3005,2975,2971,2973,2999,2973,2991,2967,2992,2979,2979,2968,2999,2975,2987,2971,2992,2991,2971,2986,2992,2993,2973,2987,2985,2996,2971,2993,2973,2992,2971,2997,2978,3005,2982,3009,2967,2995,2981,3002,2979,2992,2970,2962,2979,2995,2979,2999,2966,2996,2973,2979,2990,2993,2989,2999,2967,2994,2977,3007,2981,2967,3014,2991,2986,2960,2995,2969,2992,2997,2976,2999,2999,2976,2986,2986,2992,2999,2970,3001,2987,2969,2992,2980,3005,2981,0
2987,2963,2974,2974,2981,2990,2993,2982,2991,3003,2992,2971,2991,2965,2990,3006,2982,2978,3001,2982,2991,2991,2975,2997,2969,3001,2976,3002,2977,2994,2962,2989,2977,3005,2960,2993,2986,2999,2969,3006,2960,2992,2994,2968,2960,3006,2992,2992,2975,2990,2975,2987,2992,2980,2975,2980,2983,2983,2975,2966,3003,2981,2992,3035,2960,2991,2969,2997,2973,2987,2962,2992,2992,2974,2997,2975,2992,2956,3003,2974,2963,2992,2964,2992,2979,2964,3005,2966,2992,2983,2982,2977,2979,2959,2991,2961,2999,2960,2997,0
2957,2991,2995,2963,2974,2988,2962,2993,2987,2964,2963,2991,2961,2992,2973,2999,2963,2965,2966,2965,2988,2963,2987,2989,2966,2962,2992,2972,2995,2969,2988,2963,2994,2997,2960,2989,2971,2989,2967,2994,2960,3004,2960,2999,2992,2963,2986,2977,3003,2992,2960,2998,2973,2978,2962,2992,2967,2951,2969,2986,2986,2963,2982,2995,2999,2969,3013,2980,2991,2989,2983,2985,2973,2971,2978,2997,2975,2989,2960,2981,2992,2990,2967,2978,2976,2999,2963,2992,2993,2970,3003,2980,2993,2978,2992,2965,2991,2989,2995,0
2985,2999,2982,2960,2999,3011,2960,3004,2991,2979,2975,2980,2991,2991,2974,2977,2985,2992,2960,2997,2987,2985,2980,2975,2991,2989,2968,2987,2991,2960,3003,2960,2993,2971,2965,2995,2987,2985,2970,2963,2995,2991,2963,2978,2976,2972,2999,2991,2985,2983,2989,2997,2961,2996,2969,2994,2969,2993,2982,2999,2960,2999,2972,2995,2977,3001,2966,2993,2997,2966,2997,2971,2997,2985,2984,2989,2990,3003,2979,2957,3003,2989,2965,2979,2987,2972,2975,3002,2974,2991,2964,2978,2992,2980,2963,2997,2969,2973,2992,0
2977,2999,2975,2986,2995,2986,2982,2974,3009,2976,2999,2973,2986,2978,2990,2988,2994,2979,2981,2993,2960,2975,3003,2958,3003,2978,2992,2988,2987,2979,2999,2991,2969,2994,2988,2983,2992,2982,2985,2974,2979,2991,2998,2992,2962,3002,2975,2975,2965,2991,2957,2994,2976,2992,2979,2980,2973,2997,3007,2991,2977,2971,2988,2983,2989,2992,2979,2978,2978,2992,2982,2983,2992,2983,2986,2990,2987,2969,3002,2973,2991,2983,2974,2989,2970,2976,3017,2969,2992,2975,2988,2986,3005,2966,2999,2979,2987,2990,2983,0
2981,2983,2978,2968,2977,2991,2992,2998,2981,2996,2987,2983,2989,2989,2979,2975,2980,2979,2975,2991,2969,2987,2961,2995,2966,3003,2969,2992,2981,2975,2998,2971,2987,2979,2962,2973,2980,2998,2987,2987,2987,2988,2965,2967,2987,2975,2992,2989,2987,2976,2961,2995,2959,3010,2959,3003,2981,2982,2982,2987,2988,2970,2975,2979,2985,2735,2960,2988,2979,2991,2963,3003,2966,2971,2990,2986,2960,2967,3002,2963,3003,2983,2973,2987,2985,2992,2966,2995,2964,2992,2973,2987,2960,2957,2991,2966,2982,2983,2964,0
2985,2960,2989,2960,2992,2960,3006,2976,2963,2971,2987,2969,2992,2963,3002,2973,2992,2986,2965,2977,2995,2997,2969,2983,2991,2977,2971,2981,2973,2965,2975,2975,2990,2963,2997,2970,2995,2960,2971,2983,2973,2995,2981,2974,2987,2960,2971,3003,2966,2992,2955,2982,2962,2977,2982,2989,2958,2999,2963,2995,2972,2994,2986,2989,3003,2973,2977,2987,2975,2979,2992,2971,2999,2963,3003,2965,2991,2991,2977,2992,2966,2974,2992,2966,2993,2991,2990,2960,2995,2983,2992,2997,2957,2979,2970,3003,2966,2991,2987,0
2969,2992,2988,2970,3005,2960,2992,3022,2991,2998,2987,2971,2997,2962,2992,2982,2993,2972,2983,2973,3002,2978,2973,3003,2986,2965,2967,2998,2989,2979,2980,2965,2995,2972,2989,3002,2976,2987,2969,2961,2983,2987,2969,2981,2980,2960,2999,2983,2972,3007,2975,2967,2965,2995,2975,2964,3005,2991,2991,3023,2959,2985,2959,2989,2994,2959,2982,2995,2972,2991,2989,2965,2992,2981,2970,2987,2991,3009,2990,2989,3002,2960,3008,2971,2993,2980,2970,2989,2973,2999,2978,3001,2976,2975,2999,2994,2969,2999,2975,0
2989,2989,2963,2991,3005,2991,2977,2978,2990,2960,2998,2987,2960,2977,2969,2963,2995,2980,2999,2989,2975,2993,2960,2992,2971,2975,2970,2992,2982,2962,3006,2995,2986,2962,2991,2972,2975,2983,2987,2986,2981,2971,2959,2959,2992,2964,2992,2975,2983,2975,2970,2964,2949,2987,2971,3002,2956,2961,2994,2998,2975,2999,2960,3006,2971,3002,2960,2992,2980,2983,2990,2976,2997,2970,3006,2965,2983,2971,2990,2977,2992,2962,2983,3007,2993,2974,2980,2991,2992,2980,2987,2965,2971,2967,2998,2997,2962,2998,2973,0
2997,2973,2987,2967,2964,2957,2974,2975,2986,2992,2971,3002,2960,3001,2966,2969,2987,2989,2960,2991,2967,2987,2965,2994,2974,2992,3002,2974,2960,2986,2977,2960,2970,2991,2959,2987,2982,2955,2960,3006,2966,2994,2962,3005,2974,2991,2985,2991,2999,2965,2998,2988,2977,2958,2991,2960,2990,2967,2992,2958,3002,2987,2964,2959,2957,2997,2982,2983,2962,2995,2981,2976,2989,2962,2993,2979,2990,2993,2960,2960,2992,2971,2951,2992,2973,2989,2962,2961,2995,2966,2986,2960,2972,2966,2997,2974,2991,2960,2992,0
